,I,aVR,V1,V4,II,aVL,V2,V5,III,aVF,V3,V6
0,0.08260869565217391,-0.07173913043478261,-0.1391304347826087,-0.06739130434782609,0.11572052401746726,0.010917030567685589,-0.11353711790393013,0.06986899563318777,-0.06060606060606061,0.06493506493506493,0.023809523809523808,0.010822510822510822
1,0.1472697633363234,-0.07372184994748521,-0.39887603573133307,-0.0652027122979626,0.07678830875620478,0.014758012438597874,-0.1663580677226456,0.07066195387222698,-0.1877511519899831,0.06604402894839749,0.01920675355147135,0.008535156763548515
2,0.20455542299409493,-0.10195362912148748,-0.6382036970883891,-0.06499499798609736,0.03577675500213279,0.06093954566404467,-0.45357895778092555,0.07357519916883136,-0.25581105339726073,0.0589061874816081,-0.013388709947431278,0.008972199101852369
3,0.23030079776394236,-0.12639264473903186,-0.7939644267370283,-0.06681599296186755,-0.04275914804708404,0.15840193585127327,-0.7077362152967169,0.06922710565119872,-0.3868918317207131,0.03357328293006792,-0.063705135245921,0.0068276327125065175
4,0.26496306911101014,-0.19219161173680613,-0.9436769689900526,-0.07011834793563458,-0.05451812983231751,0.24942372177285002,-0.9043986595062112,0.07033882924127882,-0.45020329965021927,-0.005095120249935599,-0.12170928873105717,0.004691860048691734
5,0.2844227956968846,-0.2391744214101302,-1.0205738187646782,-0.06897980971450911,-0.08211573856070484,0.3175512551594734,-0.9288722584724551,0.06728132850020772,-0.45957214738553853,-0.03258618617234775,-0.21293101700915634,-0.0011117306271853083
6,0.2976414253297839,-0.2739272182228716,-1.089445675974186,-0.07326187963093804,-0.1013839630366337,0.3805471560467279,-1.072194988492846,0.06170468975468989,-0.46229435827646936,-0.060533244223486805,-0.28776420361126653,-0.008315592849155068
7,0.2997699193310115,-0.2866616208561684,-1.1142461200843743,-0.07378629503161387,-0.10386965850848057,0.405592692249741,-1.151421319708725,0.06105949484549117,-0.4633110469015495,-0.10676486569429453,-0.3147427141885693,-0.008683249872221242
8,0.30876716549263944,-0.2869192686722694,-1.2362938967403694,-0.07839774191212148,-0.11364919192145534,0.4155803701014271,-1.2101629554497482,0.060984153825312366,-0.46343196339965126,-0.11708472465576361,-0.33365041514623145,-0.008662963544131867
9,0.30852095006191765,-0.2873854541489333,-1.268149179817305,-0.07814715607272138,-0.11326217567180387,0.4238066560267342,-1.3066410281535297,0.05570949699621633,-0.4679016835783489,-0.12237549699404095,-0.3432694260771066,-0.008654831380930525
10,0.30876420162654744,-0.2928619217307861,-1.3212535859353192,-0.07837483319841285,-0.11467471406330405,0.4260956873906004,-1.3100894739269495,0.05197699245173318,-0.4674117053628888,-0.1256562421210892,-0.3782121812682149,-0.00865909423330164
11,0.30867570332445343,-0.2959950047453071,-1.3584161514584783,-0.07784823413640632,-0.11835807840987213,0.43326947874697325,-1.3979426653192137,0.05290859534989135,-0.467563856961946,-0.1270579258833366,-0.3967958213054,-0.008657578413364238
12,0.3087008230383572,-0.2955713205572508,-1.3723014581401003,-0.08082231103869894,-0.11779553952328216,0.43210551261476055,-1.4818361560002085,0.049711167250647476,-0.46752560589430847,-0.13311641485745365,-0.40430411226847685,-0.008658711715347463
13,0.3086934115229507,-0.29566831585303227,-1.4054321701541297,-0.08289246538419984,-0.1179259087645603,0.4323517167151733,-1.5073595634260901,0.0477818692718565,-0.4675336790720189,-0.13394524015905285,-0.43901595836421203,-0.008655756895172121
14,0.30869978686669003,-0.29564965043899327,-1.4148570860608585,-0.08254629162888748,-0.11790042707446105,0.4323098557572201,-1.530090034532987,0.04806846771425575,-0.46753235316623537,-0.13812817333389915,-0.4624235430830363,-0.008663685804557725
15,0.30868707344223567,-0.2956523795139557,-1.4331615021388375,-0.08263179968502912,-0.11790417968121567,0.4323143638790879,-1.5328634265503156,0.04803435401667657,-0.46753247337286036,-0.13851493010601296,-0.4806740396115496,-0.008656762562958666
16,0.30868627150535183,-0.29565221600195773,-1.4577888906401284,-0.08293492885567416,-0.1179037531544893,0.4323148358571456,-1.532827762938103,0.04801245619205281,-0.46753167660941963,-0.1385518995188708,-0.5205377143033701,-0.008548846179720185
17,0.30894851225785597,-0.2956521458274686,-1.4932234274510523,-0.08734829846614076,-0.11790725559364791,0.43231281617412043,-1.5327380249545013,0.048209109509405865,-0.46753870329543723,-0.13851907554248238,-0.5559796855575737,-0.00963302550210098
18,0.30657822499692317,-0.29565219125828707,-1.4934621965834851,-0.08692305502938209,-0.1178814397221727,0.43232267862665913,-1.5326188071159814,0.046796320411403594,-0.46749823906270815,-0.13853114553434073,-0.5842192597869073,-0.013461715525724702
19,0.2870810682218183,-0.29565212942516733,-1.5084059203855604,-0.0865513860880089,-0.1180196174063199,0.43227726678924017,-1.5334323313561748,0.04080916974738906,-0.4676867040790311,-0.1385253483679009,-0.6089774565128576,-0.012835982050327864
20,0.2646580731068754,-0.29565235378654237,-1.50574572045651,-0.08977577863169725,-0.117401982678769,0.4324550828259563,-1.5299959052147782,0.03953101522919106,-0.46694824167459204,-0.13853642377557715,-0.632114419982069,-0.013157647732649146
21,0.26221854994043975,-0.2956515277468836,-1.5491214003656895,-0.09149853426938866,-0.1197559857673293,0.43189574509499046,-1.5418918113167022,0.03573406935505666,-0.46927124004751736,-0.1385048727188644,-0.6545484499195524,-0.012525936593977277
22,0.24644491213784275,-0.2956539624928512,-1.8388613963554434,-0.09135189727034815,-0.11251406861620519,0.43293141647564315,-1.5122421750850616,0.03486282411861536,-0.46496995921535983,-0.13855429638132885,-0.6787268198930969,-0.01721086161807378
23,0.24375692946531613,-0.2956503429334758,-2.0572184415871217,-0.09136556851422177,-0.18843179325106418,0.4360120823904877,-1.9416567683130177,0.03490493505243897,-0.5274379625081647,-0.1388020966039769,-0.6838474393001949,-0.017731333550792837
24,0.23004702153771342,-0.3013035761538737,-2.1611582508877474,-0.09579859161306785,-0.21766113814173757,0.509107719929029,-2.142463428961571,0.03520653696013006,-0.4604523055980743,-0.13578666388318744,-0.715632445151436,-0.03228305467003054
25,0.2255511767421994,-0.3121092507882903,-2.2957827561155497,-0.09688671416435828,-0.19936611550223635,0.5359445449740062,-2.262631971282369,0.032899086495892196,-0.47153283700779147,-0.15788763379257506,-0.8236415574088982,-0.0332944839553494
26,0.22076010443296226,-0.29517608088135705,-2.483903604154418,-0.09876638047049931,-0.20023560015503852,0.5648158113817903,-2.416854853968626,0.02174578152498861,-0.4687080401059454,-0.2142385506283563,-0.9064425293221934,-0.03055871520085177
27,0.21341089270549513,-0.2784528343606847,-2.5491112246659666,-0.09512384389043624,-0.19478837665865084,0.5430784986886327,-2.5588005581546613,0.014461350370270763,-0.4552029934782275,-0.25138105315938386,-0.9749247725542002,-0.025550650858316454
28,0.2079368129505011,-0.26354763354119065,-2.5947618223632105,-0.09575600805788084,-0.18653605021876637,0.5082896238985445,-2.6381425915109737,0.012266139656236453,-0.44133113230370624,-0.26583263491075293,-1.0084292843313418,-0.018166252778097122
29,0.1886776503828899,-0.2546895167036805,-2.6817864043986646,-0.09563953408786664,-0.18325511951392232,0.477390563995948,-2.6956347890241763,0.0203167417942256,-0.4151687842553968,-0.260820628713367,-1.0681057147880724,-0.013716463275944446
30,0.18068499669648141,-0.2443319113419612,-2.741412281777385,-0.09564801695679316,-0.1799362645747344,0.4716229998525292,-2.8129399876412386,0.030485578348354168,-0.3852039899092068,-0.24214070795609322,-1.0866433364652779,-0.008689652300115182
31,0.14968994005339117,-0.23915418420562656,-2.723456016062805,-0.09562378037106146,-0.17476230759996195,0.46419745863081907,-2.83323603256273,0.03535712131997715,-0.36923143157911775,-0.24126191134836725,-1.1019081873037828,-0.002833952365194891
32,0.1434366251928617,-0.22926803913390809,-2.6887818027588883,-0.09599460252639878,-0.16941862531813276,0.4368052133104318,-2.891913904966407,0.040945685710260415,-0.2949844661245064,-0.2259860573946863,-1.122784870689701,0.00892926396914434
33,0.11787003326170464,-0.21962788849481446,-2.636209451263808,-0.09315955529957914,-0.15352400781484657,0.417123748346327,-2.838274912192429,0.05317101854680771,-0.2853747583918562,-0.21744197977950597,-1.1346343717744085,0.01445793099440729
34,0.06471000062599397,-0.20933820613628823,-2.5690955928791337,-0.0847845928390357,-0.14324735861375362,0.3968724443517635,-2.798130459494288,0.06512166308066557,-0.25453469884591046,-0.20520333245628017,-1.1565057371630083,0.02924819701878892
35,0.052871054526854276,-0.2016060620747074,-2.5231541823402397,-0.07756710034448841,-0.14292057347739814,0.37470061681927463,-2.716286325673316,0.06317427061678113,-0.2362495748030317,-0.18892915767890434,-1.1844605497920186,0.0356695525936797
36,0.02806722604426556,-0.1799302621493418,-2.496466027523863,-0.0701593736619685,-0.13468411290167828,0.3322291110631765,-2.646874023163633,0.08367867778184342,-0.22474161194045303,-0.18299007607527154,-1.1941291737597532,0.04287819718513153
37,0.010223850146499337,-0.17537057395626182,-2.4454245804159034,-0.06942495511379962,-0.12404567632514521,0.3153165980054406,-2.6007875764709403,0.08713486490080981,-0.15838162029520447,-0.16499603155839757,-1.2440717664928969,0.046727130147832904
38,-0.02749634261909309,-0.14989766824868428,-2.4319948948797663,-0.06959365169264742,-0.11871587687357246,0.28083445830246145,-2.572488881697697,0.10099123469072147,-0.13865197461119924,-0.14624601218265307,-1.2932731867113658,0.06574068046491643
39,-0.05167630321161852,-0.14324520436540308,-2.385043877061936,-0.06491249192348941,-0.10919437058120031,0.24289216307885492,-2.5139119360979194,0.1052668656212033,-0.12038241053236946,-0.14123707678446726,-1.3290606016944282,0.08060475641530444
40,-0.05666323199595711,-0.1239214325530688,-2.3248044346919934,-0.06566981965808139,-0.10360555510586332,0.22300109370875176,-2.4711388808367665,0.1113764215043265,-0.06868404996832819,-0.13110124832612682,-1.3407394800419072,0.10151704666324084
41,-0.07000565024242811,-0.10595531676989198,-2.310526424654068,-0.06276534537898763,-0.0804867215730059,0.21487339208313308,-2.412685389398152,0.12371539456194094,-0.06302521725011516,-0.11882647367492123,-1.3637752906893417,0.12844320372416324
42,-0.09277612959707528,-0.08224668156965144,-2.2479337999379,-0.051052904122807545,-0.055222117706157786,0.18056772578894498,-2.355159215652246,0.13777508357339444,-0.05770868000509476,-0.1068273735750015,-1.3976664831565802,0.14010345822359324
43,-0.09739047532769657,-0.08325799047831456,-2.2244231785333235,-0.047804388278437124,-0.039747787233656934,0.12918561687194244,-2.301626508454618,0.15992889593404677,-0.02879222904564778,-0.09643586793020784,-1.3725853592580943,0.16285106082929504
44,-0.11498458697890984,-0.038909832600217485,-2.1372225030047853,-0.04437628410031804,-0.019518455063529207,0.11424130002062771,-2.2856658650945074,0.1801256180284452,-0.006781305289893449,-0.09533138118402813,-1.3546979014201685,0.19955152316373362
45,-0.12083426989443928,-0.026902208242888172,-2.0979281305701813,-0.04338931365248325,0.0009028401962930159,0.10017440896735305,-2.2485814504769075,0.2092500627647392,0.02186649701545193,-0.09079515294770356,-1.350301544788637,0.22470854088524078
46,-0.1216822188477356,0.00630441230531369,-2.040334084438828,-0.04346118072261073,0.012265674612119493,0.07946055202280598,-2.208209226585735,0.22542745648893683,0.02856642423291398,-0.09048230148682951,-1.3168907634069915,0.25516477759177814
47,-0.12567028239897307,0.027056175072827364,-1.9664770888541634,-0.043648286275744935,0.021980961065468138,0.049562897182407535,-2.1632928460810867,0.25894009602961265,0.05740545756165922,-0.0851074802301771,-1.2874988151881528,0.28987770621563974
48,-0.1352570877079724,0.044473926530756776,-1.8745464800129374,-0.04223170062896991,0.02659741749778908,0.029107349630125536,-2.1295007430722426,0.28878129397400776,0.06932409501530105,-0.08003577171900773,-1.255462230970284,0.2982647522499025
49,-0.1399107457007899,0.04536335956891868,-1.7926635675401539,-0.03898467317764968,0.03321004800300775,0.012965534900725805,-2.0935242710530204,0.3305549631463159,0.08846548630975715,-0.07652046919322485,-1.24674506693962,0.34308158426183016
50,-0.14485762774738273,0.06715099322999905,-1.7034623131199231,-0.03708002666801291,0.039426163202515706,-0.008841095747452612,-2.0487594419215527,0.3487767075169847,0.09848757434494151,-0.06306631258771064,-1.2112657682800851,0.36744476698898687
51,-0.15010346502839464,0.08209435499129857,-1.6485986846971679,-0.03171793152573004,0.04360128842314191,-0.019278818406637907,-2.0207152121208147,0.3745268471287115,0.10670093839021616,-0.061477706481050026,-1.193331270151144,0.40912202524770264
52,-0.1524816091349275,0.0852960820249488,-1.5552576602571604,-0.02672091128850518,0.050786103864405234,-0.04678670019646115,-1.9959405323449544,0.43640594125716403,0.11239128205041664,-0.043350194835513736,-1.1656063127418335,0.4358613719046428
53,-0.1521148896687433,0.09094287195960629,-1.477294050920902,-0.02205969448125745,0.05968747897604887,-0.06631218431613979,-1.9266961271260699,0.4820094450264484,0.11725428605013226,-0.03687592905908843,-1.1398119089901129,0.6369730419313605
54,-0.15218242114014077,0.09125229423745507,-1.4141913662067986,-0.012827486377644219,0.06126499599352148,-0.07746941646744264,-1.7203685623770582,0.5118256373038329,0.12237023955000824,-0.01507276129867479,-1.0994898977383973,0.6444915699823143
55,-0.15217355172657016,0.09615132773649018,-1.3216512174106925,0.004144101286913817,0.06115114256817945,-0.08688386040811145,-1.5539175641709555,0.5943388890092304,0.12557822902635482,-0.01811764133962977,-1.081954245409912,0.6662325108164107
56,-0.15217504009143182,0.10033693600011892,-1.2734337280224568,0.045369720062416324,0.06112279390195163,-0.09773150477886536,-1.4826528309642135,0.7224869578149047,0.12755646386679456,-0.0008600194829897234,-1.0482519154565777,0.6674170544712935
57,-0.15216014124672494,0.09959017227506131,-1.1643658409949897,0.05483780426839558,0.06113978626548245,-0.11055139022630991,-1.4286158224677814,0.7114208957012165,0.1302085800246521,0.01045985577756201,-1.0280227346721251,0.6766264639750118
58,-0.15225882123353157,0.10204511493043797,-1.0898026927048088,0.07427737635370582,0.06113416375751322,-0.1141491553474548,-1.3358353839379615,0.7236937668892518,0.12991801887441565,0.007359051254057378,-0.9860046453158939,0.68139065207329
59,-0.1517576503157767,0.1048349758146389,-1.046810687396486,0.08476399238243232,0.06113563973722416,-0.13396079484461626,-1.2187286775251052,0.7395204907064078,0.12962671743961401,0.021008337808994942,-0.96457850442997,0.6995958296293686
60,-0.1548087745703665,0.10384882192878266,-0.9523177311462123,0.09474015741144573,0.06113536451018227,-0.13980740341587336,-1.1326159875734998,0.7509710483255924,0.13425738777595225,0.026454592343600643,-0.9036467573205471,0.7010738505683638
61,-0.15678793718756004,0.10824544253401551,-0.8652697460216141,0.10001488443989534,0.06113523619208649,-0.14444663843124214,-1.086746199922254,0.7559023728009432,0.13414988820772472,0.035232048121905876,-0.8776690601934141,0.7190592373344077
62,-0.15648421445344984,0.10870153277287707,-0.7856007720142612,0.0999539708183884,0.06113558372015488,-0.1437876879503818,-0.9939941515973838,0.7610997050912743,0.13396003740180693,0.03543532010291184,-0.8539014078905582,0.7320139124108946
63,-0.15652354109046496,0.10871446006712726,-0.7342208698685443,0.10001956502380369,0.06113656514865026,-0.14553507848813343,-0.925840848841922,0.7752743417561644,0.13596456332519738,0.04147112361040745,-0.8038763318439972,0.7695469417597405
64,-0.15652441420214705,0.10868768608359716,-0.6844585685851088,0.09998596814723394,0.06112136461589639,-0.15135348635311047,-0.832049087036321,0.7899294385903849,0.13893098457491693,0.04366738176597318,-0.7813855063580621,0.773766923982711
65,-0.15650671619399378,0.10869802263810557,-0.5916445451599494,0.10004138925148763,0.06122401745564451,-0.15302971894822154,-0.7498800035422121,0.8089895858152756,0.13845063701265367,0.042818474905354134,-0.7254882294433437,0.788869475881233
66,-0.15660807465208065,0.10869506553909188,-0.5183149055810983,0.09984623994701099,0.06069345260530102,-0.15287553844978247,-0.6823095356423458,0.8235183400600101,0.1385380552968792,0.0472263929768326,-0.6691878432133038,0.8345164892737126
67,-0.15610630281683863,0.10869577582967381,-0.4358974760577536,0.10046908713312072,0.06386968190579694,-0.15276177384182235,-0.633906245654204,0.8406124496062876,0.13852914838630753,0.04761228201434784,-0.659991572944497,0.8562613261507168
68,-0.15918372479990195,0.10869563100350739,-0.40475251009015,0.09571882630000167,0.06532877550258974,-0.157714949022208,-0.5595509459521947,0.8749336163053463,0.13854441327581657,0.04754648686266395,-0.5651144222688482,0.8797934760765957
69,-0.16124098890542593,0.1086956545190244,-0.3192603856796497,0.09509077570149523,0.06926762809216605,-0.1618673537557613,-0.4945857971892435,0.9154190416701148,0.13836121608357174,0.048424357915945127,-0.5249376465884537,0.9021550115321305
70,-0.16052991522493348,0.1086956522889235,-0.2775177095315671,0.07497730801040113,0.06990266053261306,-0.16148003899379518,-0.4445068909532213,0.929018296788409,0.13973608155541728,0.05414810090296295,-0.4693237912489735,0.9153145610345548
71,-0.16516609529168907,0.1086956520154795,-0.21172186303086285,0.062128295563774374,0.06996666493733893,-0.16159530225320684,-0.406814800322318,0.9608362676954973,0.14499367082190834,0.05657319109327298,-0.42081329066091017,0.9587769700896066
72,-0.1651545201541883,0.1086956522333395,-0.19370409882542944,0.027107806028840817,0.06903866537223519,-0.16156694996883064,-0.32424374143057755,0.998911126901812,0.15024820672194297,0.05622042921205358,-0.38812161067218937,0.9839123646910789
73,-0.16523361755900057,0.10869565215718774,-0.1299053230831867,-0.017470530204895203,0.06503609621710729,-0.16157347150839704,-0.2754952597154381,1.0316424985911516,0.1516935896353195,0.05628196239310994,-0.3774545396088984,1.004400384712159
74,-0.16528193895861742,0.10869565217757118,-0.08513383753153474,-0.021930059695492908,0.06562166182695975,-0.16157071023663538,-0.24216865535539228,1.0486742011942274,0.15149498013351093,0.05628105737928113,-0.3254210003133365,1.0310976654815238
75,-0.1648714778130604,0.10869565217441196,-0.049446681360501385,-0.059763514367837764,0.06547602249021094,-0.161570477229733,-0.1992034528711591,1.0817693429018527,0.1515129172651077,0.056316114691612094,-0.2984018560900974,1.055816405680502
76,-0.16763883747088199,0.10869565217003589,-0.007926657977235742,-0.08223448607714604,0.06550693388283801,-0.1616111151519481,-0.1406395241937809,1.1140795014879346,0.1515439273459729,0.055867909758534874,-0.2694228627278055,1.0663682334472855
77,-0.17271505644182125,0.10869565218096666,0.03610700162951182,-0.10545623700383856,0.06550157000197764,-0.1612915567837659,-0.1178131699573728,1.0959327264521908,0.15131775485496318,0.05916072196473609,-0.20701057560049488,1.0843257901808285
78,-0.17797941338058063,0.1086956521978412,0.046235040676078906,-0.11228740903865765,0.06550219167579333,-0.16339822453540026,-0.10521476675611456,1.086914751734272,0.15289708366605892,0.0658132380252935,-0.17938833430409434,1.0669779298683504
79,-0.17824725612163334,0.10869565183452408,0.09384602052334651,-0.12751269038122018,0.06550220972060221,-0.16630577326775814,-0.047975239648072675,1.0838760068252595,0.1588563015265279,0.06474855487619831,-0.16630897727442015,1.0277567257936167
80,-0.18288984303614358,0.10869565441680473,0.12399848039727758,-0.12841205787810966,0.06550217223635468,-0.16598524582129345,-0.013556065729109926,1.0550329276183252,0.15990617013936317,0.06496690777108353,-0.14889710427506764,1.0099021193608835
81,-0.1824885678944669,0.10869564073805564,0.15452030896853083,-0.12848282831633445,0.06550218673582242,-0.16560465413864842,0.0222678136767504,1.05003756728563,0.16395202383379567,0.06493156101527335,-0.11930854657467818,0.9842160124063808
82,-0.1826510312863034,0.10869570137873757,0.20103220537649527,-0.14992548042841614,0.06550218259446411,-0.17020292230072698,0.03173670225118658,1.0193535504043094,0.16446327861384746,0.06493473619998183,-0.07426515128936366,0.9661535484457563
83,-0.18256827716558288,0.10869547281096968,0.22785969000859185,-0.1756901311857312,0.0655021835160102,-0.1702891296647284,0.07419958684178882,1.0024981117588694,0.16937732518062387,0.06493806727109115,-0.0670667595554953,0.9563161569959047
84,-0.18273687006825892,0.10869616040045156,0.25493936078720586,-0.2093973879939188,0.06550218359260868,-0.16990372753377586,0.10550821102369579,0.9027610134393995,0.17350586185923741,0.06491528065850444,-0.030462252037989898,0.9427183486170133
85,-0.18218576370857556,0.10869504216630911,0.26207857841669446,-0.2229012057137776,0.0655021829198567,-0.17329006382209006,0.13435988879195754,0.8826792366496019,0.17273128858675033,0.06503869020344515,-0.009083404939708219,0.9359830809738352
86,-0.18656467018612582,0.10869015838900617,0.2977319050843621,-0.24371204148402928,0.06550218305836605,-0.17989732615344456,0.16330723586200988,0.8602030666563296,0.1753383615431065,0.06448353848927427,0.028709165385737687,0.9237559620992679
87,-0.1869536229128746,0.1087523548674649,0.3463534118514698,-0.29371126431168676,0.06550219639402874,-0.17894589918774598,0.193494484251836,0.8482435732804517,0.17783675060762713,0.06807648584932639,0.04166805706522047,0.9182597487944568
88,-0.18685351802956657,0.10834963611169117,0.3781381353907832,-0.3176717947224973,0.06550208630061541,-0.17876978922919706,0.22017568137697055,0.842662855394408,0.17740045844782115,0.06949788059333092,0.042961422950094114,0.9039425014102528
89,-0.18798994154592724,0.11084053673418312,0.3866577481149159,-0.3442676879034131,0.06550270995460321,-0.1828497832330981,0.24559951059178992,0.8203455630929104,0.17756159304328212,0.06918291651141958,0.08788978705927482,0.8937016165621969
90,-0.19141744678050288,0.11294549026226233,0.4067598428437046,-0.3791026281853833,0.06549980497299668,-0.1878367793989502,0.2688054772319443,0.799787215561158,0.17759519696700948,0.07382780578099528,0.09565458209875446,0.8751313951207106
91,-0.1934178628785031,0.11629479014808125,0.43261665510567765,-0.3952058211444146,0.06551135674893062,-0.18770977725068388,0.3049423846753769,0.7803208316517136,0.18198170573758649,0.07348450436760395,0.12397510743505351,0.8549960741335791
92,-0.1960319480139104,0.11752405533544781,0.44707173113531656,-0.4054515281016297,0.0654733620896988,-0.18777559365759103,0.311666193038648,0.7646456787279157,0.1830252139604205,0.07362644905769807,0.13436134208545794,0.8258339445233182
93,-0.1955366623291665,0.11738869294445443,0.4595763253929198,-0.43282343740637186,0.06555820814451685,-0.18787687904032677,0.3439111333788937,0.7363281636360808,0.18581865779283988,0.07358252849571124,0.15134908967087982,0.8119493552362964
94,-0.19577737072746548,0.11738541818460146,0.47342340437994396,-0.46211033005307756,0.0656280727220448,-0.18729417756512082,0.3464420594639628,0.7009789755984168,0.19119533260735433,0.0736043496106117,0.1650702938894147,0.8041499416797109
95,-0.19574195512743248,0.11739804500086341,0.4879870626012927,-0.4660641113970242,0.07016650738940794,-0.19103091428721922,0.3604156593551182,0.6851170798507866,0.19490116958783313,0.0735622651676664,0.183075076505825,0.7866419001240252
96,-0.205340429718056,0.11736533791817745,0.4968094262703975,-0.514503004927082,0.07005070539284562,-0.1921304067879947,0.3705436995419749,0.6617236076613655,0.1985835162584329,0.07365187050893156,0.19328825143292533,0.7594183318613493
97,-0.20974516981476088,0.11750962306964945,0.5017034275263784,-0.5414981005107995,0.06798761944041551,-0.1962534299725488,0.3708398341645368,0.6388411307674613,0.1990763601578897,0.07374300571954616,0.20333724918779675,0.7371224083556313
98,-0.21473282501429092,0.11692051524811548,0.5046881722778268,-0.5706199355702221,0.0655815628943374,-0.20566922033831622,0.37507805010839185,0.6239519583507832,0.2036302255419167,0.07811225231138558,0.20360096969847358,0.722293481699837
99,-0.22001120049385547,0.12086087742683134,0.504399858092323,-0.5782566592512266,0.06235578762942552,-0.20483414828813187,0.3755468845030975,0.5941605343065312,0.20421944228358885,0.07904302162487523,0.2091659485702075,0.6906422325616615
100,-0.22200031992099145,0.12181511366988655,0.5038965156937453,-0.5924253497157639,0.06131603897693835,-0.20679183963215708,0.3758804005219567,0.5627135310005458,0.20829495696611391,0.08273902381988461,0.2122070133809438,0.6744217182387681
101,-0.221695216178299,0.12172817168136335,0.5082921796312966,-0.5977513300402756,0.05697112432516967,-0.21016396727461117,0.38139739425813857,0.5459634368338435,0.20766725000305097,0.08214173555224254,0.21373547620947173,0.6116117551400749
102,-0.22174372788252292,0.12223536869927334,0.5086672640579512,-0.604928696167557,0.056815707542690205,-0.208982404251685,0.38426619080388913,0.5143657251209258,0.20781831722920702,0.0822712358547061,0.21988447642061973,0.5537554809115227
103,-0.22173935297526573,0.1265328206476802,0.5133419997803428,-0.6063074975278822,0.05673985557034219,-0.21335918311261287,0.38647330317770046,0.46497714772506815,0.20778791985662712,0.0822484395282131,0.22023336290160334,0.5164353110698884
104,-0.22174092395267225,0.1259422854396329,0.5126778061929124,-0.6107429926621184,0.05677771296222501,-0.21361849227666604,0.3891111060164356,0.41360116219655346,0.20779250326636567,0.08225113004878512,0.2286045458866464,0.47383841415204786
105,-0.22172394512687066,0.1262017386046243,0.514715417442076,-0.6256751784708132,0.05676812242184582,-0.2229314649228816,0.3882072919135084,0.38126468654295875,0.20779196576918538,0.0822512574290629,0.23380989659355597,0.44276769010494077
106,-0.22182053685328426,0.12575679664256853,0.517161468211499,-0.6508852737220379,0.05676015427402956,-0.22224819486630915,0.3927467047905598,0.33209016870959573,0.2077974843265141,0.08225046324700244,0.23375460351898816,0.40345706352735333
107,-0.22137536503329389,0.12925518712363263,0.5220481239799067,-0.6562951611432891,0.05680080154705343,-0.22487830934125913,0.3929369180811079,0.2837509355749032,0.20775543265542576,0.08225433854268784,0.23357498004525426,0.3523897423981977
108,-0.22439364450412952,0.13469044323930934,0.5330331487477163,-0.6458673154992638,0.056678717939588646,-0.23433945837253303,0.3937296049244731,0.24969237884314538,0.2079829760115211,0.08223617909801266,0.23519955905349588,0.30594009387123694
109,-0.2294747162135575,0.13501900474415107,0.5386921533590773,-0.6382187256571369,0.056864141601961404,-0.23549246369795088,0.3974780139873311,0.2208916835371365,0.20696867567471486,0.08230857161596787,0.24112761886616707,0.28563864119433807
110,-0.23456803912019844,0.1448303849650413,0.543496331931196,-0.6279266928689624,0.05218775752524315,-0.23913015550389993,0.3998222441350225,0.19320223770808836,0.2138314339421506,0.08207505868164124,0.24226398384198453,0.27050541373791237
111,-0.23475981102640778,0.14803625813348237,0.5477142979021796,-0.6084700773349414,0.05250551855986233,-0.23997122860240064,0.4146581597897066,0.1753696353420915,0.22028779947910343,0.08602935769609843,0.2459513364234695,0.2620800890961375
112,-0.23479922083601504,0.1477429817349275,0.550580288065178,-0.5798589888254725,0.05238537528355401,-0.24448233983293471,0.41979531771418005,0.15051082681917566,0.22497614582660924,0.0955126952338576,0.250962686964742,0.21563167796099236
113,-0.23479554673266895,0.14795778647560356,0.562978445144405,-0.5708274059173084,0.05232696363452018,-0.24482759609205737,0.4219503739970216,0.13506734870574627,0.22953221905176993,0.09506445623898707,0.2555429301806353,0.20771388242360952
114,-0.23468080984889086,0.14738771983234128,0.5712460605018428,-0.5484686857098326,0.05274404190921659,-0.2493308679088398,0.436414718879836,0.116770881727373,0.2302524843658957,0.0952954782600134,0.2559833311627037,0.19351883432880507
115,-0.23595284144680795,0.15150655295999332,0.58453994728735,-0.5392261613537643,0.04949778227483367,-0.24893545036473758,0.4419914461944791,0.1094802475524155,0.23425856588999028,0.09522297673482923,0.26185130249943933,0.1790873992385336
116,-0.24813500520256565,0.1522774637305382,0.5907625536787018,-0.5287626557306754,0.044017726657232144,-0.24817732450433821,0.4562212785037327,0.09155742473911918,0.23364474548556416,0.09524201961212948,0.26400068767160245,0.15737538517666813
117,-0.25630374986474147,0.15271294088368756,0.5912375144816652,-0.498802079669295,0.04366146841238918,-0.254249045990113,0.4585046980054188,0.08093514907300778,0.2337914425132036,0.0952352860655153,0.26664652157328833,0.14539184744646105
118,-0.25654026920823414,0.16148104609678365,0.5958204764103214,-0.4778574544382488,0.043654461863137956,-0.2616541415054121,0.45955074700740367,0.06435839982885096,0.23376208125994224,0.09524353743999826,0.27144442523789014,0.12317011910303569
119,-0.2565328165527245,0.1617552951021942,0.6053556138738085,-0.462438317072191,0.04367403096235948,-0.2619458660444353,0.4708427445265666,0.05758627703115272,0.2337666354089491,0.09523937844492177,0.28066844544400443,0.11933587509330933
120,-0.2563999351996897,0.16730245838449528,0.6092677822623238,-0.44485171949144325,0.04366634652643543,-0.266760662934559,0.48327498656291473,0.04856233443500447,0.2337662762706011,0.09511417377610745,0.285763970261539,0.08819253072106187
121,-0.25744164641207284,0.17258788204339695,0.6181958971943231,-0.42710975523705613,0.04366856565067813,-0.27572271334921017,0.4884316024060168,0.033316137587230586,0.2337662289855693,0.09629321439527905,0.28584193999335733,0.06376384998044882
122,-0.2631345534238021,0.17379880761837452,0.6292012999364773,-0.4126424946307343,0.04366802779578812,-0.27486113598703016,0.4979899717396934,0.009637992012383235,0.23376602989875997,0.10000518527670975,0.293955948926481,0.048680982751483706
123,-0.26563258441485005,0.1774439474158524,0.6332237788205544,-0.3898037292133539,0.04366813856578527,-0.2753526546885102,0.5080846661619799,-0.0052402175366774925,0.23376734379601588,0.09957662629631134,0.3058433916574331,0.017825156507928513
124,-0.2647086635189311,0.18257290033422827,0.6379167656930279,-0.3840358379336771,0.0436681208286743,-0.2742969567336806,0.5158725902449923,-0.02705705183561122,0.2337614618778646,0.09913987507871316,0.3096714915033301,-0.012841358326902407
125,-0.26889206297714946,0.18245636664076753,0.6470070272682461,-0.37076491337627937,0.043668122480209424,-0.28113959118027765,0.5279647414109889,-0.0393277630062668,0.23378329458826283,0.10321020127484734,0.31480569371338873,-0.041780823257818726
126,-0.26964326876114253,0.18359088453947436,0.6568638404972887,-0.3687917847043144,0.04366811005424222,-0.28804786890963824,0.5477405555730662,-0.062423369787062415,0.2337208995456293,0.10397266395289476,0.31970060961858304,-0.07749876630772329
127,-0.269723821351107,0.18707214642495354,0.6666760411537674,-0.353129571864261,0.043668215857601035,-0.28816208808670896,0.5539350773114848,-0.09288655614394808,0.233793561952982,0.1041671558422192,0.3245794380428178,-0.09335775869336828
128,-0.2749571133450926,0.1890112310205974,0.6764855055497899,-0.3435552158373291,0.043667611029220295,-0.29276418497817935,0.553450687840544,-0.1180070597464646,0.2345097813814434,0.10860871305710323,0.3291501729943511,-0.12161804574708339
129,-0.2785991050945287,0.1916830129791401,0.6862138511516958,-0.33981210130797246,0.04367044317438929,-0.29321067827308445,0.5709757429794962,-0.12521816546054626,0.24326238839443845,0.10810934206666781,0.3294682142976918,-0.16000073673316323
130,-0.2781702200028436,0.19121775158269227,0.6963635791827426,-0.32050343697014017,0.043659124191049184,-0.2987404186851432,0.5809047871227593,-0.15112826303942511,0.2421739969835168,0.10822550781603829,0.3364533182548909,-0.17247454826103115
131,-0.27828164280805673,0.19136170152848928,0.7048182339182034,-0.3073985866188989,0.04369662873119736,-0.3035517075416552,0.5886448078896117,-0.14772002174720195,0.24248611740048082,0.108343500740853,0.34625227944904474,-0.18406458374196474
132,-0.27825683890636416,0.19133601533074931,0.7234151059744388,-0.2926513058567825,0.04361114525531712,-0.3084289175687608,0.6123314037363699,-0.1486393153859347,0.24240927542221782,0.10780969056104249,0.35728859866325313,-0.21129576943329362
133,-0.2782614794490797,0.1964451113896947,0.730054987337677,-0.2632502860200791,0.04355736657355782,-0.31374605952837975,0.626552565812076,-0.1484761837775335,0.24243370470853629,0.11219690472478906,0.3586872710625162,-0.2116874154638382
134,-0.2782608171131436,0.20030263029207074,0.7444381837194975,-0.2554098811422107,0.03896420231678276,-0.3145175643603707,0.637242725242499,-0.1483586859561705,0.24241017998448777,0.11253707595788053,0.37103559637425754,-0.21577282338308254
135,-0.27826076292668733,0.20000597304682538,0.7574002337201844,-0.2334055791935224,0.039427461007307,-0.31456629468646846,0.6584752135540997,-0.1486443260547694,0.242384857058788,0.11258005612847452,0.3809380365937758,-0.2164967290374119
136,-0.2782618890626659,0.19958066110244388,0.7653131210838068,-0.2142458920220372,0.039239838153791465,-0.3191759260315555,0.6707738892478031,-0.13867611940283575,0.2430599919510773,0.11252585241347356,0.3834529447015685,-0.21646327283211386
137,-0.2782545808501302,0.20294224528915,0.7846016013754856,-0.20023363329593155,0.03943230930577499,-0.3183595053037211,0.6941039112060982,-0.12562924515852153,0.24728391519694792,0.11266089606863657,0.39996694538649114,-0.21644253286751308
138,-0.2782919524564491,0.20465430487673497,0.7989967007084399,-0.17709279581378753,0.03883783340452942,-0.320721549365784,0.7029395634460539,-0.12729213643559567,0.24625384907101128,0.1120952731487842,0.39901547205006,-0.21645427026466724
139,-0.2781298283804635,0.20411936835134514,0.8088782581579623,-0.17059333720820133,0.04297527964600197,-0.3236133883971162,0.7141956703999849,-0.1243892279299762,0.2492550289856692,0.11569878379085474,0.40768493556971813,-0.21644145900585948
140,-0.2787302918138625,0.20877443777636528,0.8068283422635124,-0.1519095104067648,0.04372164851036184,-0.3227467586321194,0.7428643757267817,-0.12241557533000218,0.25178195881780985,0.11704095959133205,0.41704511374624814,-0.2164840068804677
141,-0.27441458618869224,0.20921713939068798,0.8336288614834113,-0.14424149019316318,0.043678699690444085,-0.3267145744650493,0.7566599117824013,-0.11887261127469129,0.24721222947414484,0.11686910834616723,0.43116339950623933,-0.21633500308689307
142,-0.2739507584768518,0.2135299857135714,0.8436126667779928,-0.1299276023639772,0.04366774995927899,-0.3318464718147616,0.7804983818299436,-0.11798406419597365,0.2467456375425089,0.11678832287381076,0.4414338827328033,-0.21672813866551874
143,-0.2690225759422881,0.21290548660970413,0.8502458262275379,-0.1231582231951282,0.04362723796543019,-0.3317134821022997,0.799277874634667,-0.11350378332846593,0.2468108499649007,0.11780770201639185,0.45058998322781274,-0.2121062800137458
144,-0.26527408096476274,0.21309775901071387,0.8731060793755068,-0.1097012117982564,0.04388566434882486,-0.3329230091270213,0.8197915463773946,-0.10908110964761396,0.24604822381623587,0.12133443872369487,0.45063577727662285,-0.21216748707487462
145,-0.2629215650339348,0.2129504994705629,0.8918955430069372,-0.10420598718462153,0.04273624320386749,-0.3363478823963603,0.8301724563631764,-0.1082132103760282,0.24034815726529749,0.12327692111340847,0.45753040771189074,-0.21234454926193025
146,-0.2533512337518174,0.21329630128482205,0.9020000340392561,-0.0997607377894532,0.05007836989461652,-0.3384163633456741,0.8435225083485435,-0.10431009858649389,0.23785187944128655,0.1259120189755051,0.46848889663950516,-0.21044570153082884
147,-0.2529635022505374,0.20898716849049798,0.92235115940657,-0.09942765422773744,0.05270642424266301,-0.34099238305099044,0.8627753962206315,-0.10492110232313859,0.23790112830027452,0.12545212598105698,0.4735023649717219,-0.2074084880301982
148,-0.24555928382827552,0.2042755520832139,0.9292621866907911,-0.0918870762229219,0.052384156995645255,-0.34045489773461046,0.8955370706170213,-0.10477996692046798,0.23888621610935468,0.12560484483358145,0.4904128253548175,-0.2077521540914062
149,-0.24342583103791285,0.20367870619169223,0.9472505481969802,-0.08379486127186536,0.05239106036162534,-0.3407961277936285,0.9187239540616828,-0.10480714253979723,0.22986915823258833,0.12566398460835557,0.49742922105585113,-0.20815075453189205
150,-0.23928571537438115,0.19950774141722563,0.956199803380991,-0.08236424770151551,0.052433672456391495,-0.3360805686464582,0.9442996002258734,-0.10480321026235909,0.22934398630127026,0.1302165281632749,0.5117319539786984,-0.20365871951715747
151,-0.23476915850989594,0.20014887567636533,0.961814765120889,-0.08288521949416496,0.052231120684767776,-0.33668918941056825,0.965847986504172,-0.104803427481457,0.22468994515983082,0.1297486434314715,0.5248353042030566,-0.20350849592045925
152,-0.2334010742964348,0.19988270880356793,0.9924826316472164,-0.07848681910382936,0.05368449366195874,-0.33362937258294356,0.9819142904565312,-0.10480353798229605,0.22526629815415544,0.129902889877818,0.5316775042921256,-0.2034324814238226
153,-0.2236245576846555,0.20031806638718655,0.9999860635557999,-0.07373689272052364,0.06215123867618311,-0.32662660865529347,1.0066145778360551,-0.10480344910648473,0.22498216174655258,0.129862735278884,0.5457048204674515,-0.20349463046335178
154,-0.22186716794943262,0.19649421971251974,1.0223422261312403,-0.07421095272039087,0.06895661209809055,-0.32762308624358477,1.0369962416963254,-0.1048036524381151,0.2254919781202159,0.12987150612101392,0.5546549508683877,-0.2033491598269098
155,-0.21946003629456873,0.19132976997915707,1.0383073141267258,-0.0723690554839784,0.07348449567552953,-0.32778794106201287,1.0616777195340614,-0.10480284388900835,0.22214147134771517,0.1298699451762388,0.5651325034755731,-0.20392955305878965
156,-0.21403070101659974,0.19094885555972554,1.0388183018176662,-0.06958571268638751,0.07858079479187192,-0.32395312731459974,1.0813105829777558,-0.10480573851029946,0.21711775524154545,0.129870134887909,0.5707861433252536,-0.2001436900154452
157,-0.20958507152639047,0.18697568821372368,1.051838165354264,-0.06677435193311927,0.07897013906324966,-0.3187874831855902,1.1110078740724711,-0.10479793034404522,0.21213455938323866,0.12987014678792017,0.5757551253473419,-0.19901784103890205
158,-0.2001007609272123,0.1840283919044447,1.0796415462620426,-0.06538896299957116,0.08294309396320369,-0.31839004358565476,1.1272893284095546,-0.10480365231018847,0.21185354323427297,0.1298700401742526,0.5830112411525877,-0.1991343592592996
159,-0.19559200302777302,0.17767379747784465,1.0771544937892463,-0.06130301327671458,0.08595699774545994,-0.31415473839501057,1.1469901406459353,-0.10491919757321105,0.20654169961113822,0.12987062615945036,0.6149679893081524,-0.19914124013521434
160,-0.19502855992484242,0.1760921465121515,1.0823478935626152,-0.06087632738569255,0.09214686939911117,-0.3131658092989263,1.1573886724223512,-0.1037928976458218,0.20186602252560532,0.129867836619989,0.6212098310874085,-0.19911934036685364
161,-0.18938840761590306,0.1703052528067906,1.1104311890169114,-0.06085599130411264,0.0944633712641092,-0.3077667149330672,1.1909074187428208,-0.09996471237584359,0.1965198536845246,0.12987904510368098,0.6363947393744555,-0.19920507472640056
162,-0.18580769779865203,0.16930523631216315,1.1238954772912177,-0.060805564746514114,0.0958809771621486,-0.3022566396300978,1.2039324439382697,-0.10055834512678291,0.19445176301043862,0.12984248247113886,0.6550354047747361,-0.1988141710811484
163,-0.17393840413542525,0.16947841534777006,1.1432180704622394,-0.06126688789271899,0.10008866096087853,-0.30174870392563674,1.219603565077727,-0.10038043128136653,0.1951656095181832,0.12991848981160115,0.6584333581287903,-0.2016284088076486
164,-0.16901306111456785,0.15512001085148094,1.1480014071496938,-0.0584002509732921,0.10045646606847337,-0.2933364921701029,1.2481556142414736,-0.1005425635698495,0.19079623896647988,0.13004876028042944,0.6579140720769012,-0.2073509089772021
165,-0.16649641025120762,0.15239592974754418,1.1565852483053232,-0.0566703037348204,0.10498529753586128,-0.28342161610262284,1.272303077423528,-0.1002644222940076,0.18574789443941134,0.134567050348369,0.6629317793881119,-0.2076637126675092
166,-0.15218155745184003,0.15023510589045738,1.1649164259694638,-0.052954661684930945,0.10580453343842736,-0.2794010841203483,1.281952627516837,-0.10495811842008691,0.1756221387574165,0.1340759450541529,0.6778809404622668,-0.2122823365954939
167,-0.14740984950475697,0.14881213832902593,1.170941032220531,-0.0521112006877253,0.10904136532907976,-0.2784015479986166,1.2955656721427091,-0.10470360058419158,0.16676323615975966,0.13423152630012158,0.6835627181361315,-0.21202059169256796
168,-0.14239663934063795,0.13876665110395858,1.1941832367034342,-0.052165047433817884,0.11318420525140377,-0.2733704309273822,1.3196892649329808,-0.10483677786640913,0.16456144818210694,0.13419198807990376,0.6905661368712933,-0.21213231635777685
169,-0.13709475953812827,0.13498754720105827,1.1910967867091138,-0.05214841776453334,0.12153514618897857,-0.26556550548491636,1.3290626621870059,-0.10479473010680669,0.1622702754660046,0.1342004203517921,0.7104429024154447,-0.2122305156064645
170,-0.13502654119794727,0.12663325845344797,1.2076141237833882,-0.05238701934927412,0.12236225272100527,-0.2582794190169876,1.347822758893911,-0.10480543775499325,0.15695667112956344,0.13419898118152077,0.7176517792663496,-0.2116253101239408
171,-0.13141101956492393,0.12602071963100686,1.2160813759709694,-0.050681833184468894,0.12226127461760906,-0.2574227782086037,1.3676102783690052,-0.10480313757061373,0.1520914649967688,0.13419913419944254,0.7225079319806325,-0.21552530560410796
172,-0.13218945722430617,0.12143648568643337,1.2294528762847214,-0.04470509901422842,0.1222700231141986,-0.2576554426099508,1.376097660934185,-0.10480354161929507,0.14719828131292143,0.13419897933618297,0.7272465455742809,-0.2162816223951537
173,-0.11080659983528414,0.12111685099624508,1.2304068916591746,-0.043750300640632574,0.12227089777704213,-0.2483376474267356,1.3874956514742254,-0.10480349231199808,0.14272580760590262,0.13420042670961288,0.7407096607627556,-0.22075638923913518
174,-0.10433297563609582,0.11407733537730409,1.236469194138505,-0.03961664816315342,0.12227469812403055,-0.24048527309590514,1.4164489275008987,-0.1048034449191068,0.1421222472594696,0.1341919737064908,0.742934502137113,-0.22059434117099977
175,-0.09935993533289347,0.10296514377923885,1.2508770682154495,-0.039155006227971384,0.1222485133680599,-0.22391626551106328,1.4192786484071125,-0.10480387938946331,0.13678113923204535,0.13423152390062248,0.7547891151545273,-0.22176548936147417
176,-0.09416245563516629,0.09991391460281064,1.2588031939252755,-0.034160350926119,0.12236941044702798,-0.22057695874163552,1.4247120865293126,-0.10480132734202915,0.1314509596281821,0.13407623082874934,0.7526563950499208,-0.22567413014466386
177,-0.09192122819815278,0.09663013524562553,1.261175189950398,-0.030142759267462356,0.12189850800092611,-0.21594885513913487,1.4404926356360312,-0.10481344039048587,0.13007264494180681,0.13456473795949317,0.7554898526417119,-0.22449654106635977
178,-0.08503846959342459,0.09156350715999872,1.2606946897828768,-0.030503590796089244,0.12565224914262862,-0.2064761377592277,1.4510180205094447,-0.1047649623407917,0.1263131806591369,0.1300442496139968,0.7646942034454662,-0.22830106572183936
179,-0.07439962728439055,0.08683700466838218,1.2633699364904147,-0.03050925351959306,0.13067636868111332,-0.20525695461597762,1.4630099347038463,-0.10492306292229059,0.12545465725561503,0.1299238168406607,0.7703042199027527,-0.22896619957647105
180,-0.07366494383400604,0.08671802435839344,1.2740336876166773,-0.03005429204875688,0.13548864920811887,-0.2004578412756031,1.4745290549702663,-0.10459053077406276,0.12538914574911872,0.12979156011151513,0.775088005271881,-0.23740580120340488
181,-0.0743723827489435,0.07924755214487533,1.2604577645648039,-0.03169057602682767,0.1352897797873269,-0.19651851874486476,1.4860990928970275,-0.1092169740402748,0.11998910245068234,0.130196356552686,0.7814815948077523,-0.2424390160606037
182,-0.06507690860639254,0.07425914710409953,1.255047813429723,-0.018317337999552215,0.1354190561389914,-0.1944986760307008,1.4932920069324107,-0.11046440901891996,0.11741914476458579,0.1278345616717556,0.7948232344407034,-0.24308141637450156
183,-0.059327613457399515,0.06668861543249556,1.2397837268762733,-0.017370262508159918,0.1352556795779348,-0.18300149395459073,1.4933262046979394,-0.11855389031848798,0.1112823890885579,0.1250579298310055,0.7966775701001212,-0.247005057643192
184,-0.04551841364205088,0.056684457724843894,1.2344722930266505,-0.012608075665889056,0.13583796426575112,-0.17672536496978566,1.4828686734636471,-0.11961332354414062,0.10050189415253459,0.1260285780252305,0.7963959651197547,-0.2481514005646915
185,-0.043290164901803846,0.0567553424803769,1.2331000876209357,-0.01345898676713707,0.13218481005847518,-0.16783115119437667,1.4668540713787375,-0.12265224586619582,0.09637676011649318,0.12157280239090545,0.7969412367976105,-0.25410298755350424
186,-0.043867757776364445,0.05228947804061989,1.225063642188373,-0.011247530681485539,0.13084818752401156,-0.1656568535730163,1.4587309514949094,-0.1223931578371857,0.09183292990562442,0.12121750070494659,0.792713454681306,-0.2555887886718189
187,-0.04084370947361671,0.04730166969481294,1.2113068954923867,-0.008200823343328454,0.13101391283633987,-0.16592923109994054,1.4500397147278747,-0.12175211464826628,0.08223957218678478,0.1214600072355291,0.7878480825970605,-0.2554085887363688
188,-0.03579372141069977,0.04326069039176495,1.2001190944548001,-0.009143393410718003,0.13100813186902197,-0.1611933390115972,1.4314297283661888,-0.13088756521898376,0.08157438710798491,0.11900784895050978,0.7736465989597526,-0.25540204473524925
189,-0.030622454851570932,0.042717905585033834,1.1994177398294568,-0.005236792952689056,0.13100289541047033,-0.15373292854864068,1.417632478126669,-0.13539019412084158,0.07182500240665739,0.11162661328052385,0.770134776645603,-0.26107254399369867
190,-0.030373133369634275,0.03471192028725374,1.1798196906267155,-0.0002557705954260677,0.1310017063000983,-0.14299040089071446,1.4020092685045407,-0.13627398907310026,0.06775928983409438,0.11276932670754447,0.7610393778841634,-0.2748101141954974
191,-0.025297372839467466,0.027536925869987124,1.163712716000052,0.00443094998743385,0.1310203780969539,-0.14283115098139845,1.4011378246137391,-0.14020360860143655,0.062211854397711534,0.11251414320246725,0.7502068587749513,-0.2772580179601462
192,-0.020502605902939883,0.022453828316283616,1.1502879762250262,0.005063952729199364,0.13093701151343057,-0.1337043102752799,1.3795872900234831,-0.13971536993827643,0.06036466315060028,0.1125552575279326,0.7457907566191084,-0.2766710803941058
193,-0.015660847055098206,0.021885175731491534,1.1369394921612768,0.008957436981402533,0.13124094690633992,-0.12708313955771974,1.3653355274644343,-0.13938666688657292,0.06066233841032614,0.11255920655689293,0.7422168320749686,-0.27964201867834276
194,-0.010329883102661516,0.01736143473910966,1.1122651193649673,0.010156300407992898,0.13038159472164873,-0.12653791125118433,1.3543699641800133,-0.14301934607591746,0.060572745144383926,0.1126122924119998,0.7237102085040469,-0.28475928340119633
195,-0.00846403809825319,0.01190010200078371,1.1051417699026476,0.016253974259866816,0.1396232997997008,-0.12622616268183331,1.3407397357374022,-0.14808521454775445,0.060434115946610904,0.11192162727638755,0.7181599960831455,-0.28979165201233825
196,-0.008688140359115425,0.003746897256151163,1.0923179857682952,0.0171968622341845,0.1396045007590809,-0.11653874282621339,1.3164291479685026,-0.15295104338930102,0.05523479534927007,0.10630948453237603,0.7093085959585838,-0.2898978203511425
197,-0.008779595962175065,0.003308734837425584,1.068553102653321,0.021120734649721543,0.13981311559872853,-0.112205907170768,1.2994057268416017,-0.1525837365439283,0.050928329361751914,0.10346290509200326,0.7092950660338284,-0.29199062448863466
198,-0.003945749855472732,-0.0027706530919126373,1.057436111125828,0.02607611879323557,0.13962805836139616,-0.10703924647182037,1.270763352885708,-0.15419335972465323,0.04299329747853048,0.10442063743766108,0.7019800157070215,-0.3043469774981846
199,0.0049336212920890535,-0.004576618072381246,1.032674431848073,0.03571015946176891,0.14017738065591764,-0.10225106212772275,1.263464415263666,-0.15725835194962018,0.0391566744456,0.1004423868473873,0.689609411309411,-0.302888609994128
200,0.004219307415371059,-0.004307885481331776,1.0261569101246621,0.039451750378241265,0.13693671137513772,-0.09688102734860056,1.232841571877786,-0.15966849539884967,0.032667262018511146,0.09942483177417913,0.6715654548136508,-0.3021599782529745
201,0.003986404471439734,-0.004355903594947561,1.0035009050122201,0.03851043770061487,0.1351358596672347,-0.09593005044814959,1.2243701732241996,-0.16198974047588152,0.02644886007920732,0.09945562700824563,0.650841692890567,-0.3095684808914079
202,0.00690277826305692,-0.004356676467645804,0.9851324860897006,0.042938209546542074,0.13539988122479765,-0.09605028899259176,1.20248939031792,-0.16118999228057862,0.021630996206255717,0.0949048031078227,0.6449952059003969,-0.3117128073331724
203,0.008546730542307878,-0.004189873717173025,0.9637232375491681,0.054013145540275274,0.13537143257508433,-0.09092924811749968,1.1807424969450375,-0.1658981010271918,0.02120493169897177,0.09535677517778213,0.6402471498806712,-0.3159096384797741
204,0.012286718400941692,-0.00555392450197893,0.9526697683848991,0.06010154229126253,0.1353696955871351,-0.0869549053079427,1.1483690898330188,-0.1662671680943251,0.017103477414014252,0.09520634924718492,0.6332967004145783,-0.32079037742231764
205,0.013133695369668755,-0.008881545790995753,0.9184682571941459,0.06479384412131543,0.13537177498454564,-0.08773585544952912,1.1323905022064231,-0.17052661007277878,0.015769965268750817,0.09524305404487965,0.6191838828631667,-0.3259317887883949
206,0.0131829380509355,-0.010546741000517335,0.8928331061232709,0.06963018325736972,0.13537100632517782,-0.0852344108784737,1.1033911519881312,-0.17173124665324133,0.012424300471192494,0.09524530444234987,0.6097880708191517,-0.32935753304165255
207,0.018445526709294977,-0.01658225638865932,0.8828344044330708,0.06999830002536808,0.1353712154994512,-0.08007268164484631,1.0745559813146108,-0.1751472822157929,0.013532350986387956,0.09521517746041346,0.5825038720085958,-0.3289690794773145
208,0.02178201806775663,-0.017148008004980765,0.855060696861939,0.07537539811928311,0.13537119407809592,-0.07471216326578438,1.0589166293790002,-0.1745408366204743,0.009311727160034027,0.09525396258408199,0.5751246380681213,-0.32880780936970816
209,0.02350766778298951,-0.02155361450045709,0.8263653235683188,0.08022281734108479,0.1353711035445943,-0.07429846726360133,1.0413741848460007,-0.17480002585681179,0.008614728507437677,0.09560147063030974,0.5681366891990194,-0.33172150318837285
210,0.026505106549555863,-0.021707724016381307,0.8167038983799723,0.08481195122315284,0.13537134081638477,-0.06940419625634946,1.0007067080545782,-0.1744516489929052,0.008644721516641266,0.09998054601369641,0.5443473967983458,-0.34150682531186777
211,0.026004935467939295,-0.021573366950074807,0.7905496712580031,0.09263280868970315,0.13537140698236733,-0.06544707936600125,0.9702570663849454,-0.17913164669694814,0.008666835171526149,0.09946745862236746,0.5341210420880551,-0.34195059961387164
212,0.026099873940752374,-0.02311359013546856,0.7655526118750966,0.10361254439729146,0.13536597445524434,-0.06401189050899203,0.9511237046219378,-0.17928837954597354,0.008646175288957858,0.09947919850132766,0.5125927823500224,-0.34185674548269657
213,0.02608534622006233,-0.02614103599889046,0.7327982316658778,0.1042628254059024,0.13540832491939958,-0.061550038001556166,0.9221141719634007,-0.1860429828856116,0.008705030850137125,0.10002518133358576,0.497871373521537,-0.3433191930407538
214,0.026082512538140555,-0.028560991195134652,0.7228182450131678,0.11415118524854061,0.13517405171278912,-0.055583318555238494,0.9076595944149017,-0.19481298939796024,0.0084672225985741,0.09601903406883225,0.4853371984785058,-0.34608943034059586
215,0.0261354626729606,-0.030841928207958825,0.6924493047386878,0.12241335078372952,0.13624761689647585,-0.05233536905782183,0.8791476363386963,-0.1967273610415613,0.009302456327348118,0.09517127013153578,0.4746546634040402,-0.35084404284609444
216,0.025781707281095714,-0.03007177512788879,0.664686504554757,0.12102002666259694,0.1294191404638822,-0.04848684881336862,0.8328903704632549,-0.19643485382633574,0.004203210641032312,0.09522847173312204,0.45634999538557697,-0.35875398339502085
217,0.028007997885849525,-0.03470345712907912,0.6427098278523727,0.12539875675807136,0.12583571515579636,-0.04804769957192282,0.8269158374772031,-0.1965981707712057,0.013080732410331796,0.09524505890356089,0.44576236994679513,-0.3593467864474195
218,0.03082317712065933,-0.03472348798437832,0.6227113562152814,0.1359230330496114,0.1308981095940851,-0.04797401252979451,0.791817171505752,-0.19643784567529793,0.012519679631604578,0.095235730429236,0.43039530995527675,-0.35932359366909544
219,0.03036013276225859,-0.034795864192474976,0.5932045343496031,0.14594736805089842,0.13128145417991652,-0.04831050876085661,0.766714723577022,-0.20114047738213175,0.015362525209007563,0.09523872194036145,0.4112973062758547,-0.35964944964056506
220,0.030445720210717918,-0.03486393560648829,0.5868500934696779,0.1518995252037681,0.14078966778171642,-0.04628318972931472,0.7239656198724577,-0.2005385539002258,0.021776798226273823,0.09523795618028318,0.39885958140010386,-0.36403272002899056
221,0.03043412622831796,-0.034354485119546696,0.5533977811994364,0.15671068344233413,0.14676407501651292,-0.04325895319004571,0.7071501321070682,-0.20243796548297122,0.026321879340081306,0.09523811978176026,0.38802121418055063,-0.36360882784594084
222,0.030434516571790093,-0.03755023855539432,0.540730154585641,0.1707909528871203,0.15370638627673963,-0.04374831092124668,0.6829536924298633,-0.20566561337426859,0.030724944024510294,0.09523809412157347,0.36612739657389876,-0.3632069280807029
223,0.03043485446273325,-0.039368033675632144,0.5246028697993932,0.17523553797321312,0.1526470058301288,-0.04365618169876116,0.6682956067431648,-0.20515968957263717,0.03318910962478444,0.0952380949129996,0.34755878611296054,-0.366584687628071
224,0.03043517349378025,-0.03910157824294968,0.5140870389591764,0.17800705725277022,0.15284469762556338,-0.04366887317263487,0.6353136437962327,-0.20522595334168084,0.043031381345824224,0.09523805340484871,0.34250748578134954,-0.367882264496036
225,0.030432651366064885,-0.03913031070995555,0.4927428117871804,0.18262769557594816,0.1529264404154577,-0.04366830162649895,0.6079272636124932,-0.20529853812243415,0.043130298828143745,0.09523843818430187,0.32345540416163326,-0.37174632201994545
226,0.030443755492720104,-0.03912379250100344,0.4672724886278726,0.190159248993099,0.15271510183658685,-0.04366900944975852,0.5870931549303768,-0.20534836157979713,0.04413095266908921,0.09523617967353772,0.3147842597288193,-0.3766908900405693
227,0.030402897939585227,-0.039193969597156285,0.4621482321750175,0.19511694974181593,0.15739792917186712,-0.04366182453136264,0.5748207680731622,-0.20994855191782225,0.048051285207423536,0.0952468226733258,0.3013378827575193,-0.37655873464366346
228,0.030521574758620707,-0.038774762623664555,0.43880136898946265,0.19557822753550214,0.15707754108894312,-0.04369889034083569,0.5433827686007623,-0.2094866503600904,0.047588235440776,0.0952047185004095,0.2858286436464963,-0.3766461584020805
229,0.030353305016487128,-0.041368937201685954,0.42653072315670804,0.20036043943911175,0.15738861152484485,-0.0435426142546906,0.5235535440441794,-0.209632050171928,0.04730202179167213,0.09533875701708842,0.28799578085454086,-0.3766185905781925
230,0.03500360618720368,-0.04393453700961536,0.38847803790191465,0.20500841995294616,0.15645839492097802,-0.04408808575250569,0.5105610497301761,-0.2096351032965247,0.05060322021649546,0.09508164090510457,0.2687936332856029,-0.37661824165111635
231,0.03467611373446861,-0.04302147670009934,0.3734367644209551,0.21146220897659712,0.1621056456221748,-0.03967818972485954,0.4854428949561692,-0.20947833202678218,0.05600623029091962,0.09973208181084005,0.26031739955980404,-0.3766470473422812
232,0.03481439174612091,-0.04753454260359156,0.35700824699607414,0.21988393201761472,0.16954567916082353,-0.03931970131780724,0.4825915380473634,-0.20996723358164562,0.056266988550186955,0.09955144443048942,0.24653378065478807,-0.3765570760830247
233,0.0347821091902017,-0.047807882348722124,0.35064393228285407,0.22409677914752701,0.1735799233320164,-0.03914327413626011,0.46377372592948507,-0.2053131639982238,0.05628307519329729,0.09905305325870384,0.23572366677751266,-0.3766865200206726
234,0.034750965267374034,-0.04774259847202909,0.3302122670703052,0.2296978302172184,0.1832839019079617,-0.040411537059854626,0.43790398839953215,-0.20498066790172081,0.05634915327569163,0.10318591665010088,0.21837175822465507,-0.3717585172662627
235,0.03489925909460108,-0.04867660834261696,0.3183566295383978,0.23029310318792062,0.18329330011295136,-0.04420939320722649,0.4170961167170243,-0.20042915141694145,0.05585962225202814,0.11176239179332653,0.21400610678793483,-0.3675503400962171
236,0.03447655462718501,-0.054411434206335874,0.2995403214253031,0.2347213410324215,0.1834580375919364,-0.04321994215678709,0.40187089596646774,-0.20103443858065198,0.05887031254787382,0.11235329149403264,0.19996647174111615,-0.36875087999353584
237,0.03907546363379836,-0.05681715170673574,0.29409804325402944,0.2396281386769995,0.18359438629082567,-0.04637612128817755,0.391923528747292,-0.20071592339020367,0.06034581286951643,0.11620423016694043,0.19151270522901603,-0.3635701267123874
238,0.03905868357663898,-0.05647138726257982,0.2795384774760025,0.24459365543688633,0.19628247813923,-0.05190755440293345,0.3745234299152834,-0.20137586025396462,0.0645525196940562,0.12123698429009815,0.18647951491713496,-0.3588486741181657
239,0.039217911555148546,-0.056504585492113894,0.2695430685076496,0.24938321871527375,0.2093598002027408,-0.052459303178756016,0.3530256695753819,-0.197299452477237,0.06463685524610246,0.12115252164415619,0.1863950899654337,-0.35675849424626976
240,0.03878364868693615,-0.056562636586463697,0.2655668709988488,0.2548744603527264,0.20960714336998967,-0.0527118261689167,0.347796475754808,-0.19659314141279707,0.07856655517495388,0.12123503211704934,0.17199098521039802,-0.3469224285768389
241,0.041238690086643257,-0.05672166726949345,0.25739774552637235,0.256316398226686,0.20960696749212263,-0.05701687956910135,0.3370046151442515,-0.1919675123569209,0.07758975557571454,0.12120556004510179,0.16360968697832942,-0.34641998343708724
242,0.043837995525160954,-0.06124692430732115,0.24092289905946535,0.2600073386547835,0.2096069868728748,-0.05773843968844464,0.3218299832676294,-0.18749111865863533,0.0780489509748026,0.12121412573359336,0.15708617627774646,-0.34475284180729066
243,0.04341316014107335,-0.060702346021216304,0.23501147950918796,0.26094487305037245,0.20960698704672617,-0.06386201069318083,0.3032303536787858,-0.18817532039850657,0.07778020692454983,0.12120998393703909,0.1496509045337359,-0.3307768284829837
244,0.0434866657464587,-0.061122168447141384,0.23022472937160451,0.26086325569050506,0.2096069929118168,-0.06528337373212019,0.2836200847111016,-0.18573978286550097,0.07839664744339224,0.12121747717251576,0.1395871734760777,-0.3293260916784066
245,0.043478149582224714,-0.05992923864760923,0.2242795826587318,0.26112318338519447,0.20960695130593038,-0.06891919068121183,0.2824684559824769,-0.18384577681424447,0.07448102155897636,0.12120560860110347,0.1265780260600532,-0.32643580473641
246,0.0434773277001509,-0.06733039104317277,0.2082461372451859,0.2588272221413619,0.20960715144140818,-0.06997100541385722,0.2683271516015,-0.17748194298690245,0.07351850549907415,0.12115404332614647,0.12568192925945254,-0.3247852079347075
247,0.04348313599183846,-0.06982839167484409,0.1974294914870784,0.2493005733031973,0.20960633899252187,-0.06987932106201827,0.26476741007080096,-0.17093190761897067,0.07360751667146131,0.12186204803924754,0.12115060233515634,-0.3211320770678854
248,0.04345141576008343,-0.06957444192569456,0.1931966525087231,0.2481683624778642,0.20960908902415593,-0.06972250532215069,0.259577389295525,-0.1660398398932153,0.07306436271751608,0.12720690496851922,0.12097611125673198,-0.31631318431758976
249,0.04360359702093179,-0.06986827333317863,0.18870414537873975,0.24446804051390733,0.20960246072264999,-0.07099413915238789,0.25425399929293957,-0.16597920167256405,0.06874150606813516,0.13188961900321858,0.11463120087640384,-0.30710852739227246
250,0.04297579250817598,-0.07429342103188119,0.17959788095551932,0.24400006636737906,0.20960168349181008,-0.07480609804029008,0.2507063637548956,-0.16602575552068624,0.06977892963812733,0.13727070722962464,0.10413869008521845,-0.3060445166802697
251,0.047009751722492825,-0.07394107870178085,0.17412693564687284,0.23505116193636647,0.20974386620354674,-0.07366578816717045,0.23200320868967847,-0.16506868819343232,0.06675803019846842,0.13875245897165445,0.09694018732317118,-0.2966151376718378
252,0.04766178995707393,-0.07320375197230726,0.16409362683767786,0.2349810324972134,0.2085185760948123,-0.0774190417733613,0.22684655105677237,-0.15726522980241683,0.06466835013575585,0.13839988712999438,0.091924946207076,-0.29194506726776503
253,0.052187780794534865,-0.078933351122799,0.15141721884623843,0.23383629566851397,0.20476557271298976,-0.07875648806642334,0.2217429242274167,-0.14944109940320507,0.06493514857677436,0.14311070793911734,0.09080550993997502,-0.2901926363455907
254,0.0521169533113926,-0.08646402349183242,0.1510578831179437,0.23048904977360032,0.20537831518702826,-0.07859312396473135,0.21614061601172108,-0.1482317241198943,0.06497643154230628,0.15209250878716968,0.09088760403195228,-0.28669298971238466
255,0.052013226611561436,-0.08700876793637458,0.14772791369176652,0.22714143963785316,0.2051169410186191,-0.07858109509772757,0.20250998399135006,-0.1487474267174153,0.05975553615900276,0.15130351658266325,0.09058980246895205,-0.28555197701660895
256,0.05348575748996801,-0.08695644832276876,0.14522542819419745,0.21586113473865676,0.20555389822161352,-0.07877560400086733,0.19562679825874135,-0.1440575525888644,0.051501987812388274,0.15158574430416416,0.08638169934415542,-0.2856426828815459
257,0.05874276913738542,-0.08695403823701678,0.14350805541074035,0.2096182707692528,0.20125024217467496,-0.07737079348079175,0.19656894214281828,-0.14372633379452388,0.05044987268043345,0.1514443040885923,0.08526213864612155,-0.2743634033003289
258,0.06398963165327848,-0.08695754096125467,0.14004406677629808,0.2049697627318478,0.19625516841837212,-0.07206154330313609,0.19672146960418327,-0.13859939929316015,0.04829713515081074,0.15172738403537503,0.08165782547528716,-0.257469723336835
259,0.06539426643145757,-0.08695622218974479,0.13482698176768126,0.19998612431119497,0.19195196824548888,-0.06679003924836853,0.19210590146369594,-0.13187990808939548,0.03977515889151075,0.1483976324561247,0.08285242222772059,-0.2526431451887384
260,0.06519591436258829,-0.08695659527248221,0.13459269059479023,0.19982053634819072,0.19147107566849067,-0.06524645506748336,0.1867117636958969,-0.12333328704943775,0.030314467759596658,0.1386714022386155,0.07865932370274552,-0.24091976339936877
261,0.06521577823898367,-0.08695650614711697,0.12919882424467563,0.19326326696179655,0.18430184436215238,-0.06568856019122994,0.17741724113337418,-0.12249146170540702,0.03068748764923062,0.13870300285007817,0.07808752070413433,-0.2381827655047088
262,0.06525245446217796,-0.08695652514386452,0.12565760442263782,0.18512201164104614,0.17370012238551363,-0.060956786071504586,0.17301827957505853,-0.11880208118757274,0.021384523245079466,0.13783442563006254,0.07353035147399985,-0.23427472914912667
263,0.06496415925781993,-0.08695651974672805,0.12662390609845628,0.17816433958787778,0.1670776941104642,-0.05668064754995329,0.1680685701872606,-0.11376622512668706,0.017321909219680923,0.1320527973119307,0.07312151287293228,-0.23394598034288036
264,0.06686154860181963,-0.08695651923322649,0.12324277103599197,0.1702479235875321,0.16236975921165764,-0.055612645092823904,0.16257566632623419,-0.10912812625099856,0.016126342012199615,0.130313763076374,0.0687742296140813,-0.22457916638415085
265,0.06999032286329133,-0.08695657760918699,0.12184464321847632,0.1696970621424063,0.15746934194474385,-0.05231209061189222,0.16173056929889956,-0.10787004405046345,0.012963008174204158,0.12461004745388259,0.06942922564879832,-0.2186962089116305
266,0.06947441036749497,-0.08695612415163237,0.1180947537217043,0.16571819427917692,0.1527429042680132,-0.04998082907560411,0.1575734794145963,-0.09788274234347062,0.010341755691530114,0.11727419430278074,0.06909260635264372,-0.20286829009799773
267,0.06958835018752535,-0.08695862667838401,0.11309451949606268,0.1559543540192979,0.1523361285580579,-0.047764668491210485,0.15255611909489686,-0.09661668064568503,0.009278182705322251,0.11684406482020011,0.0697843210365373,-0.18952973805395099
268,0.06954627301306754,-0.08694719436279086,0.10858666342743098,0.14674003158820595,0.14687694095684448,-0.04798135532668657,0.1481786557559945,-0.09100089715864251,0.0011287309592625154,0.11686159944396263,0.06532935285153613,-0.18608192159097905
269,0.06954120929700258,-0.08699168628420922,0.10786718553325456,0.14209244827453096,0.14224267322312453,-0.04812475470976083,0.14855087633035718,-0.08342504878335467,6.456360688744667e-06,0.1171702487035236,0.06507962359367639,-0.18294844983490258
270,0.0701337106635528,-0.08685052329226668,0.10389527062454372,0.1375546212164314,0.13669362596691478,-0.043518155536818794,0.14854946525306512,-0.08293777746658947,-0.0049570705708137175,0.11469062307572717,0.055797789526809013,-0.17844222780157334
271,0.07409120853416719,-0.08713124398684043,0.10426935015645329,0.12962058244570124,0.13552147077651583,-0.0429254524726437,0.14716557104571074,-0.08297778851221367,-0.008549468374243203,0.10537109477983414,0.05651918616243936,-0.16431086977687245
272,0.07549279642634746,-0.08250010062868059,0.10513314121163765,0.12280754564840025,0.1318021672428506,-0.03868781733154861,0.13440936753577576,-0.0825896066612334,-0.011315854346308185,0.1038366847604156,0.0561157185156163,-0.15392233545734244
273,0.07870809534499218,-0.0821111999996562,0.09792068603491691,0.11783474893395436,0.12677389317730922,-0.03994422553973139,0.12701853034603786,-0.0770737776676759,-0.019939026006290703,0.10189505298948986,0.0567303329512917,-0.14169839390152103
274,0.07816940646562807,-0.0771019695892649,0.09149045274218362,0.11738392687705283,0.12215116272423462,-0.03608978956054913,0.12239444490751021,-0.07381374663314391,-0.024670795439928873,0.08815001747482458,0.05342184603978627,-0.14308664037464125
275,0.07827587716773438,-0.06979048183000969,0.09130738563211666,0.11162605262193724,0.12168251949144336,-0.035724654497660824,0.11781013542040655,-0.07467187989621366,-0.026092889918074895,0.08228179224055894,0.05173600206483463,-0.14323178137659598
276,0.07825939610555666,-0.06442366892476725,0.0912696526626551,0.09165102074633985,0.11622172863644274,-0.02324837540140167,0.11710346352857481,-0.07150230263908645,-0.029283772572310757,0.07738551217557811,0.05196979239943248,-0.13980493910992198
277,0.07826071139908813,-0.06567994055353986,0.09150216083691907,0.08017173586355976,0.11145393862253758,-0.013009094605449033,0.11296556742252886,-0.06620623824795868,-0.04350565616481996,0.07216787840262874,0.051949869143119505,-0.1383277390115687
278,0.07826105769186277,-0.06175441189923856,0.0899761163354917,0.07795598346068505,0.10648929912371499,-0.012767492208974425,0.11401630409957741,-0.06146046510173662,-0.04391023467470478,0.06963548212505175,0.0519463056174725,-0.13858184509322308
279,0.07826044748836503,-0.05659990394371624,0.08462392559402139,0.07871529348341773,0.10156857071370526,-0.0070376309830129805,0.11097953347971762,-0.05159836137629002,-0.05537197986344774,0.06466819219607342,0.0519486738651283,-0.13337759467735313
280,0.07826283792938303,-0.0565647553358529,0.07980073501270431,0.07495805964731554,0.09664842462198678,-0.004068977659722937,0.1058970431757583,-0.042489370724299355,-0.060935088200889956,0.06024008901190708,0.05194788257304664,-0.1187415163050955
281,0.07825225166241749,-0.05650032113106785,0.07498124573771772,0.07029583783070309,0.09171642808513547,-0.004309234752986964,0.1006539379615847,-0.037616820354054614,-0.06264810340923145,0.057648835447756355,0.051948090583357524,-0.11091855268729367
282,0.07829336191875566,-0.056529633017879596,0.0698347033290649,0.060754174855989704,0.08668526502254714,-0.004832218337111589,0.10038683931223147,-0.03457928940599259,-0.06799020056610497,0.048330496882082054,0.051948044667560804,-0.10578203008495238
283,0.0781618660172036,-0.056514047545888305,0.06959604145781788,0.06058841872178244,0.0827943807870702,-0.0004811051540284184,0.09532523529354608,-0.03492579753186545,-0.07311530380837028,0.038804607910026226,0.05194805288541091,-0.1039677882444681
284,0.07843543204186829,-0.05654668447076334,0.06912867621721597,0.05512874262122092,0.08192118897779015,-4.1626767578138105e-05,0.09018474972272418,-0.03522651686940017,-0.07363197507659484,0.037879174852343316,0.05194805197132096,-0.10091012060381094
285,0.07376924656932349,-0.05643726858323785,0.06391686277910244,0.05025953737235591,0.07559026307376117,0.004792151391953712,0.0873044133016979,-0.031256394954961846,-0.07399968324039904,0.027936738475472327,0.051948053029109695,-0.09573183193619646
286,0.0741671599970268,-0.05673217420038329,0.059075623081054,0.04595033968274793,0.07526858203912849,0.010807757604464851,0.08516172082731285,-0.026185322464347488,-0.0778667786741176,0.02607854318406913,0.051948041732614365,-0.0908578932323421
287,0.07269699940925707,-0.05220046719909995,0.05438007731729897,0.03709857447559634,0.06422684681864597,0.018419594764142618,0.08052531532781243,-0.025871787191767425,-0.08094906060659053,0.023817867920976746,0.05194811172147514,-0.08607507962750369
288,0.0690341804227453,-0.04763484336629671,0.04855425341042083,0.0343121479571542,0.056788289751323696,0.016782051922726877,0.07085356488553392,-0.02051144804435418,-0.08700248172232795,0.017959310555484997,0.051947770713439964,-0.08006325510008364
289,0.07000755608560257,-0.047842417144948336,0.048833328071075724,0.035040287594874764,0.05672602008994578,0.020541844724676087,0.07006886524452775,-0.015690206868663764,-0.08939824746421549,0.017459699258542283,0.051949165758439754,-0.07097485298569302
290,0.06689486180243154,-0.04817839189426495,0.03557283078383561,0.025525868189353918,0.05157005840943377,0.021630900642468788,0.06080357516164017,-0.010812254343157605,-0.0907472232890522,0.012952112558312833,0.05194448285751523,-0.06941702504307239
291,0.06136840958899022,-0.04550682903208232,0.03488054434269238,0.02093641248342507,0.04773109696611887,0.025893812066515153,0.06054031522947202,-0.00544398104736197,-0.0949268745449148,0.007941742262853255,0.051955130542868995,-0.06658559849172574
292,0.060832767285843414,-0.043517554626947404,0.0346352785278087,0.015947672068486917,0.04802686736893908,0.026176245948207187,0.05656905404971133,-0.004155951188007625,-0.09520658374602894,0.004177553204480466,0.05196352840325722,-0.061496108016536676
293,0.06086113811836994,-0.04033246310725751,0.03529818975050847,0.010614275949906606,0.04846050341597847,0.026110939046191894,0.054785495949459515,-0.004484345499998891,-0.09526808172816885,0.003025475305223978,0.051650594267823084,-0.05637839891945528
294,0.06087477085606066,-0.0352696124162975,0.03156402374919385,0.008622840332535431,0.04505656767206792,0.02712212002207603,0.05234016725509763,0.00040460864710385687,-0.09520790531115163,-0.0025047068711999323,0.04474045362992675,-0.05607427849049296
295,0.060867792769790104,-0.03039850832869331,0.022853437458349075,0.006264332497218314,0.04339775556185645,0.03292138832659782,0.04957189326940683,0.004702390204311142,-0.09534766100382343,-0.0071211294599320156,0.038168162897070125,-0.05168260376979198
296,0.06087018373492639,-0.029982765888486203,0.02150323720021797,-0.0035580154007252376,0.0438293466023692,0.035230882805246166,0.04394244111937647,0.003951646335033392,-0.09477742553667896,-0.012563157336867359,0.03914303612826936,-0.05103384973281189
297,0.06086881147651875,-0.025545650361558103,0.022048227076290432,-0.004352651367846508,0.03904664738499573,0.03484021553558499,0.04367090740589722,0.006444343996592547,-0.09844482010888003,-0.012893128726053239,0.038918360080138985,-0.04513280659616267
298,0.06087194533418116,-0.026599749078078178,0.017712065115178505,-0.004810310606910063,0.03467720258922881,0.03505126668193134,0.038379215139945445,0.009059748111472376,-0.09972742701583577,-0.017543260598217238,0.03898985333156807,-0.04293915519823284
299,0.06086278765697957,-0.023668238253571127,0.012790466066104305,-0.009110085270194085,0.035029845046094764,0.034861112081623485,0.02778472635151503,0.008793526361515872,-0.09954737478674985,-0.016994286494977466,0.03894470099927269,-0.04364985495772182
300,0.06087865836565559,-0.0214262441625852,0.007691234603850107,-0.008579393792484655,0.03488148041269899,0.039185930485320326,0.021468362343701364,0.008439761343103572,-0.09919928330532,-0.018835309143280122,0.03857739037118287,-0.039656091135946966
301,0.06093365189052706,-0.021816134201220184,0.0042070633294165796,-0.008701648580455528,0.03506398950389335,0.03441865713999235,0.019741131056163104,0.013109841568519562,-0.09482394483680678,-0.021757979453746423,0.0343981154121524,-0.03462241673442715
302,0.060130918439035626,-0.021685350837287586,0.0029557939616023108,-0.008780787057232788,0.034474637431341104,0.03499223812772802,0.01697871446768706,0.01351714026481768,-0.09535716091738061,-0.023890470575049817,0.033461966843733044,-0.03468963766584358
303,0.05610573147004649,-0.021551746440734352,-0.0029573430729353473,-0.008410527210632075,0.038645132159593754,0.03537232348794547,0.017921722779996787,0.017682388082825663,-0.09523249769254978,-0.029556078407421027,0.02805507993034586,-0.034610390030388204
304,0.056415209954477206,-0.017200705845376946,-0.0045577780024510595,-0.01258400585331815,0.03934803116859214,0.03188472959208843,0.013352701604313318,0.0190202430470639,-0.09514622559738099,-0.030550135569886866,0.022825390944159488,-0.034631464040098904
305,0.057458633499538746,-0.016263394305221418,-0.0042967703455943675,-0.017477581368959463,0.039318287843330135,0.030761143698125656,0.013121389673031053,0.022284337965828092,-0.09554805208661252,-0.02584124620811469,0.021502812239288877,-0.03466283059219653
306,0.04996393948640479,-0.012580356293534326,-0.004376317764936317,-0.017365582939516924,0.03924152703869462,0.02649056814302378,0.013250821334157756,0.021743881647194607,-0.09133640266431485,-0.021400129765329522,0.021620911702484324,-0.03450900187149484
307,0.0478645243439358,-0.01303161790984942,-0.004567455821026827,-0.017122871962037642,0.03963544693093536,0.02623598306416976,0.011797366073548903,0.02184807769625392,-0.0863797663281876,-0.02175409542546178,0.021542501624780063,-0.03500432332515366
308,0.04360442374432519,-0.013472684524991877,-0.00950437161432609,-0.019260800504338788,0.03764875026355116,0.026173167566932207,0.008704491219956367,0.021832963904210034,-0.08144657227853526,-0.021515579955579917,0.016323734197774747,-0.030500209696471214
309,0.04354222458050583,-0.009285347851456517,-0.015758767769683123,-0.0221319395789923,0.04975651356466499,0.026211890730199604,0.006144499245052882,0.02183381296169688,-0.07664163899228758,-0.02211002116336218,0.01265506300948789,-0.030347653242185968
310,0.04344603532529111,-0.008663980613534862,-0.02454017950882202,-0.02166440608355113,0.057856500227345016,0.026190490245568004,0.004553977800710376,0.021834212237307426,-0.07122209136733125,-0.01849261202420157,0.013070125343651153,-0.030272272744273396
311,0.04348849365843454,-0.008680484606008008,-0.02629259367783969,-0.02174970736973682,0.0566151918197946,0.026234922432165495,0.0005159300125677849,0.021834011579259058,-0.06941707692426533,-0.017167341564382495,0.01299318719548318,-0.03033596551278964
312,0.04347560128552714,-0.008704321624296268,-0.026013957689842302,-0.021738637006839916,0.05677542446743185,0.02608169541459157,6.418394776178116e-05,0.021834073471687605,-0.0661102818108564,-0.01732177649791614,0.012897373295645711,-0.030181125377252472
313,0.043478853402871484,-0.008686971273651856,-0.02618994433895706,-0.021738815484765698,0.05676889283106683,0.026513835209266694,-0.004530543733561287,0.02183406096676339,-0.06471244805414156,-0.017303758470660274,0.013231903002836927,-0.03080270641325172
314,0.04347815017806667,-0.00872668352023908,-0.026004911609104717,-0.02173928239610249,0.056807142014117996,0.021880047969479698,-0.005084367218126312,0.02183405233088956,-0.06498116576974738,-0.017473109921451624,0.008736858709920303,-0.02687147270210348
315,0.0434782761678973,-0.00857006094156117,-0.030494832734644133,-0.02173907663662357,0.05652608551415478,0.021918931454092454,-0.009330914442771242,0.021834084243423584,-0.06034896464591961,-0.016156093551635737,0.003833620332891897,-0.02614460739331218
316,0.04347826026982818,-0.009129448141514635,-0.03200311277410243,-0.021739176702542884,0.058422294035867385,0.021678551589861098,-0.008171092761969655,0.021834059819712547,-0.060733540023471005,-0.01036701979868095,-0.0010890943722975464,-0.021649767583539512
317,0.04347826036338026,-0.004809635813792561,-0.040074220380413944,-0.021738988461596376,0.06424092295433421,0.02255713417531981,-0.01157714429191505,0.02183358452185623,-0.06047698936409611,-0.008411494085212981,-0.006026372127199914,-0.02173451028862688
318,0.043478261113324215,-0.004341223596705529,-0.03899766918732953,-0.02173959549379272,0.06568336432073066,0.017302827013799395,-0.013325329034902775,0.021837902902816057,-0.061060160341593395,-0.00869838497097559,-0.010755492601925064,-0.0215455848119162
319,0.04347826075089923,-0.004328751966422296,-0.03871600507421442,-0.02173807513864554,0.06547886671680866,0.012319747436503256,-0.01307340584245314,0.02181268012648516,-0.05766112911134647,-0.008655048617698089,-0.016392787641063764,-0.022023737660405145
320,0.04347826110622239,-0.004355934599711617,-0.042469280809184995,-0.021738357248605292,0.06550246780340314,0.013598685500374416,-0.013098574917744826,0.02193154240349097,-0.05610947364370267,-0.00865995228939121,-0.016797059859152762,-0.01931528627204313
321,0.04347825997192489,-0.004345409841042533,-0.043598671275586906,-0.02176749961675057,0.0655031954737957,0.008974819370595084,-0.013137638976039414,0.021459304101309508,-0.0562437309996673,-0.00861655211199207,-0.02527164136195926,-0.017036383824057654
322,0.04347826395871134,-0.004348424647878484,-0.04347647283158899,-0.021527676552925718,0.06550175482048974,0.008768411359018723,-0.012834306312929356,0.02518348079144032,-0.0561192164711923,-0.008944562107307477,-0.030360046467777846,-0.017256893763823743
323,0.043478252950251914,-0.00434769978318436,-0.043473148392195377,-0.02318218321150317,0.06550231414232542,0.008708533739128355,-0.014836528187004514,0.030231256247821227,-0.05158565685017284,-0.006796670875678062,-0.03030503353280998,-0.017496362905191503
324,0.04347826450283167,-0.004347847747539884,-0.043480444001743807,-0.028437411262139733,0.0655021368782616,0.008742051487393215,-0.017848408539787742,0.035053566907825164,-0.05207130623690989,-0.0038294734778532066,-0.03001676660987942,-0.012884339334074981
325,0.043478394541612606,-0.004347823674094412,-0.04347760667112344,-0.03371446984793875,0.06550224925278657,0.008731924423518694,-0.0175088020439992,0.034905487741148565,-0.05191529153491351,-0.004811244221314128,-0.032232806263988896,-0.012395796859718259
326,0.043477114249548414,-0.004347825971252023,-0.0434784242658351,-0.034917970067775056,0.06550198746008462,0.008731716458013869,-0.01710799636055953,0.03462953469229277,-0.051955367398945296,-0.0005841324649123638,-0.03500882259729434,-0.008165326518551508
327,0.04348485293636742,-0.004347826316393655,-0.04347822573547771,-0.03478273699592195,0.06550262150375624,0.008742043767133457,-0.021639580742868494,0.03701764627719473,-0.05194670744228114,5.459749914736479e-05,-0.03457081301473238,-0.008787829845834977
328,0.04344717742611226,-0.004347825524646902,-0.04347826779277696,-0.03483559219051005,0.06550251158358025,0.00871170618676359,-0.021789085867610077,0.039212295826699745,-0.051948226883086715,-0.0045723699573847094,-0.03461928180427439,-0.008629342789629029
329,0.043603863995371084,-0.004347828796228466,-0.04347825827717202,-0.034070119165643446,0.06549043046303568,0.008741206606870179,-0.021861801918267858,0.04254453200682458,-0.051948049249964934,-0.0042237672099778205,-0.034639439107659396,-0.008662678397980838
330,0.04305264673356249,-0.004347814034700919,-0.04347826014062066,-0.02997187937000925,0.06558978557259894,0.009141875362395807,-0.021821859110210753,0.04380724169021961,-0.05194805527809642,-0.004359978249758673,-0.035038381495749574,-0.00865886301422319
331,0.047401328217257774,-0.004347872002271508,-0.04347830530804451,-0.030556410236846028,0.06502782117096549,0.013529622380412908,-0.021852468422637515,0.04366482353414866,-0.05194796653158805,-0.004322214376659137,-0.039369846612906066,-0.008657600661228039
332,0.04782727290020121,-0.004347685106972504,-0.04347791925454074,-0.03040774209780225,0.0682929633521002,0.01297435447361331,-0.02176617308644415,0.043553716992876995,-0.05194855095964555,-0.004327528998663975,-0.03893105270770957,-0.008629154612628715
333,0.047845740021493555,-0.00434807645596106,-0.04348013871239787,-0.030439745576687424,0.06720414077609631,0.013130978460843538,-0.022070537085583118,0.04464805583074145,-0.05194575220207737,-0.004338094246318789,-0.03855401955844284,-0.008897787593914304
334,0.04781794222995804,-0.0043486531088708456,-0.04346968273230485,-0.030434157692477346,0.06525177272394782,0.013094226829594985,-0.02122314552589919,0.04850529216111256,-0.05195695820946557,-0.004312812022635446,-0.041882301510235136,-0.007049207360979818
335,0.04782851259694639,-0.004335966764341797,-0.0435118008970364,-0.03043478313137364,0.06552654474602687,0.013101425438019641,-0.030495196503658364,0.04791865180130835,-0.05192052194747633,-0.004267994941759229,-0.043587384418706354,-0.0039061674523947
336,0.047825443113029886,-0.00442637762521914,-0.04337025927169031,-0.030434279632078353,0.06550484212848039,0.013100351706990483,-0.0304261603628304,0.048067262749897505,-0.05199596854180891,-0.005192644005715108,-0.04308876036918587,-0.0044176968800801915
337,0.04782638816231762,-0.00394683052863304,-0.04370691806373288,-0.030439273948543583,0.0654999433936657,0.013100422042767111,-0.030628559642950862,0.04800296742314102,-0.05212668233158518,-0.007835193305926587,-0.04774018788165507,-0.004307211762496586
338,0.04782548926683504,-0.006876902674478275,-0.039057009752883246,-0.030409126996119303,0.0655029769538076,0.013100446520224168,-0.030549571094307486,0.04808589768780478,-0.05664406681522408,-0.0036462614573720565,-0.04786022232601703,-0.004344518875487216
339,0.04782742372834418,-0.008979633458345841,-0.03921366093525648,-0.030554046169476514,0.06550196467364121,0.013100433371144232,-0.030572141660602122,0.04820373616680265,-0.0561539838460768,-0.004920620855163428,-0.0550027265344888,-0.004376600817031522
340,0.04782664872582316,-0.008654006441534566,-0.03911767199628232,-0.02996512985374483,0.06550223535860908,0.013100437608111814,-0.030566758090469732,0.0527417107203858,-0.056309522355611936,-0.0009905444058757194,-0.061498928177352044,-0.0036188768042273597
341,0.04779395461776818,-0.008698111422794102,-0.03903789349798259,-0.03396464037598096,0.06550216996614655,0.013100436248507373,-0.030567840381222,0.05244072623604361,-0.05626981177174804,0.00011270334899638975,-0.059935815024581555,0.00015089928896930765
342,0.04807251872111339,-0.008696322892389058,-0.03958158756149559,-0.03484600763332679,0.06550219486372395,0.013100437554162863,-0.030567669484304512,0.051610771340054845,-0.05627853850374952,3.070920459729283e-07,-0.06404754830320068,0.001836667620387623
343,0.04621416648424875,-0.00869889521846361,-0.03612421961642968,-0.03476063835151492,0.06550216800710235,0.013100434563207804,-0.030567683414020597,0.057654537935927716,-0.056276453562169974,-5.497384519770892e-06,-0.06475775341100104,0.004611414921867757
344,0.04305014046982393,-0.008672697744098817,-0.03459354352682899,-0.03535196665178628,0.06550210582522946,0.013100437031706002,-0.030567701983714633,0.061665069182879215,-0.05627712983064125,2.5352426516189622e-06,-0.06924985303370998,0.004693797638137059
345,0.043567971943637485,-0.008808458988083955,-0.03479686612534112,-0.03965887728595126,0.06550312310953152,0.013100478364970925,-0.030567580133306033,0.06106515703962062,-0.056285655629007905,-2.562285943343194e-06,-0.06918410658286842,0.0005073126279097509
346,0.04346307529802962,-0.008227793804906198,-0.0347750027924977,-0.0386183434304213,0.06549618716629477,0.013100095922125942,-0.030568233402025687,0.0611369474901542,-0.05620681496814845,8.893086450745997e-06,-0.06929693844672198,-1.1080266422249397e-05
347,0.04347963776236511,-0.012010978646005982,-0.034937180259906365,-0.041623816698176296,0.06553221422954167,0.013102342094506444,-0.030565297925484743,0.06113809062791329,-0.056669806563115856,-3.317183753788616e-05,-0.06925499546105778,-1.918155521753422e-05
348,0.04347801563895628,-0.013168122845392146,-0.03360760439092847,-0.043877365148862486,0.06537464013018812,0.013091734299414215,-0.030576461102304223,0.0611342813599366,-0.05383871867327855,9.83959753322892e-05,-0.06926401962361386,8.251820800425938e-06
349,0.04348751041010164,-0.013040875196047746,-0.029971315128365247,-0.043104382966492244,0.06596098401281789,0.013133878966064126,-0.030542707372322765,0.061135221000783196,-0.05209489410894168,-0.00014179894227838471,-0.06927265823671733,-2.3232358785432026e-06
350,0.04340975503878036,-0.013037984670878742,-0.03054295899445434,-0.04768422924690148,0.0616807189740247,0.012998380869438409,-0.03059739936161802,0.06113760166811389,-0.048393114509827154,0.00450950308085427,-0.06923651176479996,-1.1956126026194744e-08
351,0.04384717479708952,-0.013050022514870672,-0.030413516339361926,-0.04761917315510288,0.06113224925064877,0.013268986344726237,-0.030846512893078392,0.06112633074590154,-0.047559024735840665,0.0042809392259482194,-0.06930969636345072,2.271063990391244e-06
352,0.04117429391341761,-0.013017736589377526,-0.030437596866810263,-0.04950991488385631,0.06141401176345125,0.008573699660287756,-0.035332458636265954,0.06116392021723659,-0.047606920236648656,0.004014710258181656,-0.06946495005441795,-7.5280497638546714e-06
353,0.03874409366017236,-0.013161074396934093,-0.030435315374684368,-0.05711657734941966,0.06589798331968295,0.008834511494179218,-0.03480893989664224,0.06108149188886944,-0.04762581316505987,0.006502495418978226,-0.07391796370219361,1.4242107211659028e-05
354,0.039381147492467454,-0.012575053286367502,-0.0304385089859207,-0.05836702096349544,0.06543801401927374,0.008700251755414756,-0.03496665701874898,0.06098834737605666,-0.04762249100325822,0.008549838356615377,-0.07378086568409196,3.8733575825781476e-05
355,0.038725928745719035,-0.01650150980743848,-0.03038797597195603,-0.06127925116499208,0.0652270302582075,0.00874235671814849,-0.034927363304737315,0.056423464071202106,-0.04758984349965673,0.011991811650162857,-0.07163501622096154,-0.0006370158849512275
356,0.04805811899566628,-0.01748580483172147,-0.030735450389897324,-0.06080262445849418,0.06772902242106942,0.008731702512744396,-0.03493632366519138,0.05681208543767626,-0.04774372893150318,0.01309267172549522,-0.06888734089730797,-0.004782988187444369
357,0.05329205904824024,-0.017394834681495643,-0.028534397533877074,-0.06086396304081269,0.07351915017033125,0.00873397073728166,-0.03493293836063215,0.05714259669304732,-0.0471870945060853,0.012990863315988989,-0.06933194268043466,-0.004214568088833468
358,0.06291316234632538,-0.017385313596957563,-0.025695566214157996,-0.06086570873526888,0.07419132490135545,0.0087335812864542,-0.034934107344787274,0.05418114530647546,-0.051506975123218876,0.012983090802750787,-0.06925561580656005,-0.004323179817284789
359,0.0768496724071934,-0.017393927879279188,-0.02616455317894518,-0.06121489589322767,0.07850689019292612,0.008733624394150753,-0.03496719966160049,0.052120794734639334,-0.05194747010639753,0.012970106970832921,-0.06926405773536738,-0.004443273781099655
360,0.090670255008582,-0.017388728851108017,-0.026069318778082457,-0.06666389851013484,0.08771224388676686,0.008733627399001952,-0.03468060927932403,0.052462926072504065,-0.05825394869405072,0.013089948324973046,-0.06926447476416597,-0.004011213572511375
361,0.09320223671812596,-0.01740013981522074,-0.026095688941516065,-0.07000770087039399,0.08782437611041545,0.008733616635547921,-0.03661022359982513,0.05238484408981227,-0.0762534662629431,0.012529515540462189,-0.06926390595532515,-0.00859988480859602
362,0.10585076742865732,-0.017358014423898394,-0.026156432897894755,-0.06902948407576331,0.09381423811720457,0.008733663353734258,-0.03972171735027023,0.05201360545561984,-0.07800542967510204,0.016111160094209282,-0.0692641163765146,-0.008616426190178234
363,0.117129868748321,-0.01749434000660719,-0.02532443044560809,-0.07259269089634683,0.096151082161315,0.008733449112861396,-0.0392168374249499,0.04779940510854069,-0.0925095263196303,0.017471699562637825,-0.06926405779516599,-0.008460773540545086
364,0.12248446036449097,-0.01720210450368791,-0.021275049320768482,-0.07407125519956638,0.09799249670909524,0.008734292876944412,-0.039312861950648474,0.04686187327522307,-0.09898161245833643,0.017307791298162234,-0.06926407239050257,-0.010194487950940245
365,0.1455147033249882,-0.021865292431711862,-0.021860295215852883,-0.07394383082301485,0.1073115370602335,0.008731611567094334,-0.03930359613610073,0.04140894251411609,-0.11360075689647851,0.017311753941113027,-0.06926406627121667,-0.013416309828527602
366,0.1495806930882373,-0.02163201375466391,-0.021712074602727872,-0.07408120950570544,0.1130154232601605,0.008736760433111493,-0.03931367350645816,0.03614499048571477,-0.12112781153459641,0.017318392631323634,-0.0692640734114614,-0.012906326970765112
367,0.172686699101709,-0.021858563868691505,-0.021744189877306447,-0.07867174363301166,0.12244980071303355,0.008749800296844686,-0.03912819317238821,0.034768925544483784,-0.12594910819009605,0.017313621966051435,-0.06926409052597617,-0.01297323400058694
368,0.19217042046467228,-0.021284552626562068,-0.021738431285738026,-0.07784190259231955,0.13637303521582678,0.008537974991989715,-0.04058049555620039,0.03494690639263775,-0.12996126936080402,0.017324535001309,-0.06926381217115646,-0.01304207937255434
369,0.20927861882038737,-0.024455398192533683,-0.021739157681469726,-0.08018757792839358,0.1505954670557571,0.010143154001471002,-0.04409768823568631,0.03492717799104866,-0.13110605756989044,0.017282507533203255,-0.06926570010888085,-0.013111685904490555
370,0.23316869725799533,-0.025619854602682266,-0.02173915354193332,-0.08311899513884127,0.17536950783683616,0.013304516369427909,-0.043689828476155865,0.0350917461858695,-0.13478096105257653,0.01742483982710785,-0.06925600191444171,-0.0176612301567428
371,0.23442551351632154,-0.033059116386358,-0.02173911967242413,-0.08206192153896344,0.20013023117596263,0.014997639732913935,-0.043241223090847374,0.033719255770627565,-0.13363641183283526,0.01709142320031705,-0.06929754325845103,-0.017200163707376103
372,0.24825606464691613,-0.03918632742634998,-0.021739133761731408,-0.08652181206101246,0.21908334061159015,0.023748854849401126,-0.047500140818609655,0.030107531636214546,-0.13754064385739218,0.021739752678394852,-0.06914932875358275,-0.01731992212133145
373,0.2623479306564824,-0.040036306771232634,-0.021739129585400575,-0.08691381448410554,0.2489033191170392,0.03395472414592153,-0.04805410335213383,0.03066386363347331,-0.13868908643360325,0.021553691128039065,-0.069540555963451,-0.017433537154792438
374,0.31261853576048815,-0.05898863417534727,-0.02173913062454555,-0.09159277459174155,0.2860848592054429,0.03930104112088245,-0.048077456947463265,0.030580335590322787,-0.1385420918111602,0.02167760421976758,-0.06491768069841534,-0.016866279831291287
375,0.3351414984073419,-0.0599150362232789,-0.021739130385365516,-0.09094721049837452,0.31105980874019346,0.040304580977626625,-0.04780379401110429,0.030481890791468198,-0.14364436844689077,0.02163560394689808,-0.06501457658502703,-0.021108889671154738
376,0.3462620391464562,-0.0667134415494371,-0.021739130478922526,-0.09294899807824089,0.33175096907860874,0.05688559528627,-0.04955791341293122,0.030639822854025237,-0.14729799658365963,0.02164961732971281,-0.06490373790796496,-0.02165582858224312
377,0.36132765565110636,-0.07673622314445112,-0.021739130424652097,-0.09564116640326023,0.36155228834611824,0.06688253134009804,-0.05284735990688239,0.025966310401576716,-0.14853657161340686,0.021635314858245516,-0.06494400980948885,-0.02148490897018758
378,0.4037151137651707,-0.08500426952246495,-0.02173912969284579,-0.09841415764350049,0.4537680948509457,0.07889897758328808,-0.052275703800701276,0.026248296927002944,-0.15307896829625578,0.02167011070763995,-0.06493294403968256,-0.023384874579898376
379,0.412326483599346,-0.08694854222523363,-0.02173913658971281,-0.10023361172607251,0.4982434639293948,0.09396663157996635,-0.05252797996646827,0.026540605574251523,-0.14315847075534058,0.021628351882728804,-0.06493548544894334,-0.031337731746672655
380,0.4504350460286194,-0.09122355709586488,-0.02173909553098075,-0.09997498286255717,0.5335561071235411,0.1029485480566699,-0.052161550754068406,0.02388739313564306,-0.12860083559577806,0.021247199713517517,-0.06493500150572148,-0.029602574451658505
381,0.4841039879771009,-0.10234610466013003,-0.021739293310814055,-0.0999989602622219,0.5658372238284153,0.11315154430090713,-0.0568403074296727,0.021951267871467055,-0.10870726303532943,0.01718172821707611,-0.06493506849819855,-0.03333374133404706
382,0.5078274149715221,-0.12284265662475745,-0.02173848003007293,-0.09999092812631039,0.6007373886554963,0.11817837797849297,-0.05668126196866761,0.018406671056886592,-0.10233417100715256,0.01556060749598161,-0.0649350600077681,-0.034439320382598705
383,0.5220539551922331,-0.13743734095415816,-0.02174129167677947,-0.10007756800253918,0.6302317384710613,0.123448977314681,-0.056800368068877845,0.017314700271823896,-0.06970358639391025,0.014596204294507668,-0.06493513556272058,-0.038616757240996065
384,0.5575750538591078,-0.16849078636794354,-0.021734126262074983,-0.09958517184600683,0.6483220090036268,0.12644324699260776,-0.05676159535971861,0.017346786984695682,-0.0625950762509707,0.01964418979987205,-0.06493461874018586,-0.038906940412702
385,0.5542049659103349,-0.17262097312970867,-0.02173685842609488,-0.10256592976171228,0.6581837749006432,0.130222429047969,-0.05676180316204305,0.012916135155659958,-0.0521515348975403,0.0312586988896288,-0.06493725552220309,-0.03956015944379756
386,0.7196324249156268,-0.19845134758787353,-0.021861226594209568,-0.10418748908094762,0.6646898069521611,0.13898077249472218,-0.05680117823245077,0.0120555980584074,-0.041631535761453564,0.04706553720599782,-0.06492604002230455,-0.04380699695261464
387,0.7574796906661999,-0.21602965342651753,-0.02072419221046768,-0.1079977716685567,0.6799485512124197,0.1394724933639372,-0.05667193453653295,0.0081303049804644,-0.03857986815667057,0.05262907298798025,-0.06496569962691377,-0.04277456483946604
388,0.762499718974162,-0.2350679549145697,-0.016948683067173547,-0.10874174129114379,0.7004212860473197,0.1435607505200968,-0.05690358413324474,0.009312078138237218,-0.039006197212528695,0.07107206488794006,-0.0648630692188517,-0.045825348063754
389,0.7869309453454261,-0.26030361450482636,-0.017388051026776666,-0.10871007103994762,0.7097983640326004,0.14856112585655326,-0.05221476138100917,0.005517547431527717,-0.03896208746795497,0.07579922110616626,-0.06490123887821435,-0.04790287743222323
390,0.813752784340401,-0.29640320175736157,-0.017825508856990697,-0.10868670082815582,0.7246518622868034,0.15787614664170183,-0.052505077278648796,0.00422182602986457,-0.03895577062158435,0.09815605109614692,-0.06031071151460307,-0.04755598849425402
391,0.8357087919669391,-0.3227717737334416,-0.013901291401228427,-0.10870440590781132,0.7310378224277773,0.164983488461857,-0.0523715559211587,0.004372033748573758,-0.03898289780184305,0.10873637673777213,-0.06064885311455077,-0.04764419449168389
392,0.8459540797269688,-0.33111633522044437,-0.012901311055834587,-0.10866459182962952,0.7574016978490896,0.176294633184117,-0.052394150621617015,0.004348573714633063,-0.03884746693724501,0.1387648072884726,-0.06097953166996627,-0.04793642166584807
393,0.8623602239390892,-0.37454017061976475,-0.01295377590591917,-0.1088218664043274,0.767801573810151,0.17309576821765824,-0.05246738880530873,0.0045805798547353905,-0.03875954189245447,0.1511192243034563,-0.05808803897040904,-0.05235360652244264
394,0.8715689177338248,-0.39283054625000313,-0.008341564914682907,-0.10826013651531803,0.7906532502520924,0.18359806833911566,-0.05216874434247497,0.002874897189563601,-0.019242808609775692,0.1730230245569699,-0.05643340125193933,-0.05182335292128077
395,0.8951712189941049,-0.43151559076568247,-0.00908028915973961,-0.11259965722368073,0.8267855933084479,0.19188261840710152,-0.05298319317751069,-0.0004483695094990471,-0.009087859237717575,0.2109645961394746,-0.052646195528811085,-0.051979147842190376
396,0.9060819348951665,-0.4570642994053293,-0.0069363963788509845,-0.1130452263587264,0.8497525087005449,0.19599857701672904,-0.0436859098637867,0.00012677180120529836,-0.0005215419266465238,0.2297216206909919,-0.05190429940611189,-0.05194210115727693
397,0.9351766390133044,-0.47308843436934334,-0.003964727445786581,-0.11295214458679517,0.9058309661693068,0.21039288858053132,-0.0438106858636832,-0.00012649941567234902,0.0039052459205192575,0.24656480690686997,-0.05193802264073492,-0.05194702403899569
398,0.954446676956942,-0.49586761566300624,-0.004339547663200588,-0.11401596920302604,0.9297817699801386,0.22188567775766527,-0.04366805311009749,0.00023870998300085707,-0.012893207483266084,0.2562662008204688,-0.05190295216062297,-0.05195253863087163
399,0.9682360439042742,-0.5116773506675402,-0.004615170540693582,-0.11786221846324356,0.9851469006800458,0.23851077434566711,-0.04307997198157032,-0.004444561009732597,-0.04876634201129849,0.260065368024927,-0.052273587580827806,-0.05195428478385598
400,0.9914996830376063,-0.5282581167737878,-0.00043766271868196194,-0.11727685478847018,1.036156472111577,0.2569084087825203,-0.03233926239205132,-0.0042779787144403125,-0.06967940465608827,0.2625183307672772,-0.04986432940196355,-0.05180073813067003
401,1.0184546638237482,-0.5302316826452004,0.004436580768598244,-0.11741481066991288,1.0173252509167183,0.27752667392807945,-0.022688469128137167,-0.004399193131530718,-0.08805428027247776,0.2724445491469488,-0.047295661967304295,-0.05311191238578113
402,1.0322996028229885,-0.5366523417962316,0.004281542250112274,-0.11738747078738948,0.9912393767951032,0.28791481456592294,-0.018588619209053,-0.004357872639126158,-0.1504468910564973,0.2728582844084413,-0.04757100040294349,-0.05663365480127948
403,1.052013572800592,-0.5556285412156866,0.004359911969145579,-0.11739166669122376,0.9655809043919433,0.31239999026244497,-0.013311223826538704,-0.004368879681067279,-0.18072055814290755,0.27765553003110743,-0.04786408358424275,-0.05662908324562245
404,1.0527094522325435,-0.5701992150083925,0.004401534309472819,-0.11739134890132726,0.9420836568104833,0.3278777027859935,-0.013154159974246966,-0.004366413494004078,-0.269819124845946,0.28583234887010567,-0.04323894732265957,-0.053162169514218136
405,1.069181635121046,-0.5815178493295562,0.004086938148773249,-0.11739126931784319,0.9459515877463257,0.35633571410146503,-0.012608523778299203,-0.0043668699675795345,-0.32352677748370423,0.2959279333014042,-0.04352298502495413,-0.051789721477357706
406,1.0789268570578998,-0.6093666265367508,0.005322838962271458,-0.1173913165199976,0.8903389897566915,0.3641026215060616,-0.016690281015731837,-0.004366809095259598,-0.33880263001139566,0.30990102585642165,-0.04205090083834104,-0.05195714106681491
407,1.0800798399421816,-0.6334841571673522,-0.005518298500996953,-0.11739130105511032,0.8583470452821688,0.3892895544907904,-0.028401989507135364,-0.004366810681491789,-0.36135472516896666,0.31801044063955525,-0.039109308441935345,-0.05195784655659715
408,1.0831450265613851,-0.645507616480765,-0.025071699873389704,-0.11739130509936065,0.8412199081167475,0.4091666019210932,-0.038503232198977624,-0.0043668129966490795,-0.4071060349087199,0.3404515965284745,-0.035663833013249525,-0.05189033409804202
409,1.0821215663674728,-0.6687997539990786,-0.04488691698289409,-0.11739130420467622,0.8109735433604922,0.4245670058510663,-0.06533141630326825,-0.004366811987343638,-0.4368189176026621,0.34218071887387225,-0.040728994822472726,-0.052283173457895626
410,1.0864708018292397,-0.6809624318629064,-0.06833203110374943,-0.1173913043681419,0.7620755736748438,0.44423629861866887,-0.07258926291970445,-0.004366812287679129,-0.47776977302755763,0.3695002089311329,-0.043034460729636216,-0.04982865526103489
411,1.0869753164017355,-0.6956612658419171,-0.09249941269851925,-0.11739130434685933,0.7210525439676407,0.4494081995330526,-0.095558657368605,-0.004366812214069182,-0.5012074359295003,0.3707506299822842,-0.05155421982044153,-0.047260747571003354
412,1.0878347053739426,-0.6995801273077538,-0.11915918062488653,-0.11739130434722864,0.6791538212134062,0.463998284217338,-0.11281781752574574,-0.004366812229595308,-0.5342445633678791,0.38069570246047607,-0.06210051439462041,-0.04770901962252663
413,1.0957893493661053,-0.7618413165935762,-0.15909612439418414,-0.11739130434811355,0.6653745867199198,0.47240424686135585,-0.16336701583144325,-0.004366812226171291,-0.5427110369752205,0.37563741828308345,-0.08593562918342189,-0.04754629724404254
414,1.1000058245451785,-0.7867612307129693,-0.1887421391971488,-0.11739130434773715,0.6231187791164868,0.4800306041533477,-0.18610529045299723,-0.004366812226405953,-0.5622112889054964,0.35688103284095085,-0.10003697779657109,-0.047552484613274465
415,1.109869033112155,-0.8169126049707714,-0.24528327710618944,-0.11739130434784856,0.5885371653752999,0.49472746387489763,-0.23372400914837516,-0.0043668122461870875,-0.5943405590571725,0.34685026918548684,-0.1118482375875596,-0.04297027792165851
416,1.1102719781753665,-0.8315367141283337,-0.31037704516319226,-0.11739130434782127,0.5506469651324128,0.5162739294472216,-0.27976653708020427,-0.004366812087614613,-0.6135361096254351,0.3379538192554115,-0.1294652656513303,-0.043408646469157194
417,1.1201537447808196,-0.8453125962082864,-0.3819917954623351,-0.11739130434782692,0.5325905109228612,0.5331610707137423,-0.32901290465759075,-0.004366812970149282,-0.6370889084646792,0.3323343734497037,-0.1530520749679588,-0.04325886401746397
418,1.121924334152469,-0.8480482688299517,-0.41719693966320504,-0.11739130434782599,0.5074470948992666,0.5606567448829267,-0.3569667299863556,-0.004366808945126319,-0.6429774633755544,0.3119896313843176,-0.15962447381072156,-0.04328898546711448
419,1.1217416875056407,-0.8478085315144557,-0.4713223728887107,-0.11739130434782609,0.46072731982112763,0.5765889723121959,-0.42395474393420646,-0.004366824413576751,-0.6846546919281031,0.2917069375100082,-0.1782688518377814,-0.04332117963090624
420,1.1215337020339229,-0.8427957872264612,-0.5260112912599748,-0.1173913043478261,0.4347688853438303,0.5807504623765415,-0.43070023026480475,-0.004366777125472918,-0.6996034748617259,0.2780630331348269,-0.21408310003698663,-0.04319624255301742
421,1.10638346586,-0.8379836395750531,-0.581855091251899,-0.11739130434782609,0.42012051759686714,0.6009693851592335,-0.5002743678211705,-0.004366856054550193,-0.7227565044154983,0.25645403551890794,-0.21358813552241884,-0.043407426032169134
422,1.0729088317349045,-0.8331093825611633,-0.6009762052106552,-0.11739130434782609,0.40011588196263626,0.6422886908844467,-0.5202411206357078,-0.004367185637242257,-0.7413923065464576,0.23456818409171087,-0.234063312597031,-0.03875796394272745
423,1.0509047054917053,-0.827234334750259,-0.6880934774936465,-0.11739130434782612,0.36716088616698406,0.6511288354257578,-0.5850795442689654,-0.004362903642857296,-0.7575806398458228,0.19812851602444978,-0.2582344935271442,-0.03906675132722269
424,1.0197053857761413,-0.8082913906433495,-0.726174320185916,-0.11739130434782606,0.3364462551141669,0.6581505140606467,-0.6109028149554206,-0.004390661211475634,-0.8228006739828188,0.16301764673962776,-0.26630566318006543,-0.03892767222009299
425,0.9890588524938686,-0.7846510299306115,-0.7406210843674543,-0.11739130434782619,0.29374794846727764,0.6684550624163786,-0.6655195094542887,-0.004251353137343995,-0.8685063309625789,0.10202897677149042,-0.2830826295467107,-0.03896953994169167
426,0.9521321929297658,-0.7828056952444025,-0.8416587296670006,-0.11739130434782592,0.2713295453602814,0.702123341522598,-0.763865668491715,-0.004837613071655517,-0.9366367848570671,0.08116950091346058,-0.2899292215228159,-0.03895922286359583
427,0.912685728816108,-0.7687413825102656,-0.9182640050847077,-0.11739130434782534,0.2502184137893604,0.7178709991175929,-0.8190914673987334,-0.0009372855390970332,-0.9839848431361753,0.04210329202589051,-0.3000598305889635,-0.0389613165024047
428,0.8914286197012451,-0.7509299607094889,-0.9689426449630049,-0.11739130434783526,0.21805990194829644,0.7484132529512391,-0.8719877700691926,0.0001002567165077409,-0.9743876437498514,0.014894860229802387,-0.3122821500882521,-0.03896109754408005
429,0.8547717695974321,-0.7445113524386014,-1.0197536586973992,-0.11739130434776739,0.15859815776164818,0.7689098315001923,-0.9471986237438799,3.2405583169702592e-06,-0.9458218032581046,0.0024531534804872928,-0.32474289528985384,-0.03896110331186646
430,0.8231250183519407,-0.7317155018888154,-1.0875655931325081,-0.11739130434811884,0.1417329367156102,0.786694199833635,-1.0117531743581827,-5.8532005114808445e-06,-0.915465399258451,-0.026177833403178283,-0.345958735786214,-0.03895850352562429
431,0.7951203878480427,-0.7291193866833622,-1.154109222817195,-0.11739130434659602,0.0927682472640989,0.7975302222201318,-1.069468302290223,9.20982764208813e-07,-0.9054786107849581,-0.051443076571158076,-0.351299171696147,-0.038980008330943665
432,0.7890315767105315,-0.7156018479445643,-1.1647831789839744,-0.11739130435214794,0.056563192608715826,0.8091108575520521,-1.1373140464403395,6.75353851615033e-06,-0.8792736398850118,-0.06536530522641017,-0.3607335164788149,-0.03885885660499794
433,0.7640994697682917,-0.6897363846080898,-1.3116260157206192,-0.11739130433662433,0.03290062944627107,0.8166248464034517,-1.2218724583073537,-3.2797554275005076e-05,-0.8681409706643416,-0.07345603652002008,-0.3796636585853576,-0.03941603691109262
434,0.7172425521327406,-0.6829117254040482,-1.359052592341084,-0.11739130435284256,0.010636326806125742,0.8214795528370212,-1.2831264478528768,0.00012344311618778256,-0.8262080677803287,-0.09669074854590384,-0.38550352637808033,-0.03588673171012235
435,0.6821144598851888,-0.6737625765103907,-1.4140251774103023,-0.11739130454111935,-0.015648581999346156,0.8504646181504818,-1.3528221361106336,-0.0003617378667916313,-0.8266921544489841,-0.11154145662324415,-0.4067446502678555,-0.034464332526913596
436,0.6600945496645103,-0.6716104128726353,-1.5052431131134414,-0.11739130269614044,-0.027723857701561237,0.8631372361185167,-1.4338014241053152,0.00420755031743238,-0.7971058038594094,-0.11670671622770964,-0.4349171779836219,-0.03464336935063911
437,0.6271787567292683,-0.6516788845530682,-1.6288992894488037,-0.11739131377506451,-0.05622084045566492,0.8579477631745966,-1.5242600351757087,0.004315009906153302,-0.766696889994814,-0.12408735276361457,-0.4508959629951145,-0.034636035752042875
438,0.6077645215318672,-0.6358256978902093,-1.6894284014878524,-0.11739126048352144,-0.0794495808195649,0.8417233864890297,-1.6364704724846184,0.004398989454362296,-0.7553757753088627,-0.1284612777722773,-0.4881386314292135,-0.03462628208530552
439,0.5694690940818175,-0.6175981474081994,-1.781271023144694,-0.1173914772617443,-0.08670824351586683,0.8064169221483543,-1.7332924263645009,0.004332694883199567,-0.7118850751877303,-0.1613273186576482,-0.5406501931899977,-0.03465590821780484
440,0.5422255462426299,-0.6051306182959453,-1.8661278993354427,-0.11739074903776242,-0.10141221676019536,0.7817544341606752,-1.8580045825834703,0.004491829065046807,-0.6778649796746805,-0.16861068171822682,-0.5645831443957833,-0.034518376996627416
441,0.5025657863507048,-0.5773900981434872,-1.9557983315967107,-0.11739243541242812,-0.11976669608478949,0.7820203017369945,-1.9348405821454022,0.0038618674195236334,-0.6203066014059387,-0.17108167645293768,-0.5916216667785194,-0.03509864750582448
442,0.47147228729017726,-0.5612070647421855,-2.0242108910659122,-0.11739337390098414,-0.138041175412851,0.7576692580270531,-1.998318452035666,0.007881802360688209,-0.5989494668541405,-0.1931598317501074,-0.6441468002357863,-0.03126126047308385
443,0.4419162739320977,-0.5419285492251872,-2.088808731564238,-0.11735092510296888,-0.13617000072349278,0.7305506566304998,-2.086101265296381,0.008569138395324654,-0.5561010970301944,-0.22161747406540286,-0.6979820089387173,-0.030197528354525983
444,0.3949382493962024,-0.5264877802403499,-2.178788472646046,-0.1176728860641782,-0.15984742691501308,0.7038891554493909,-2.123374432998869,0.013130766311630416,-0.5316813452517335,-0.26134588373049666,-0.7633275117610826,-0.03030101622304446
445,0.36206054831006984,-0.48770146165545836,-2.2328373343101666,-0.11557309606448322,-0.15714299019574332,0.6973606934655024,-2.159673849834531,0.01301303892282027,-0.4927739555446742,-0.2712749419755946,-0.7821744626395517,-0.030308832431542043
446,0.31852350941283114,-0.4525903863329741,-2.26114120749252,-0.11264177593427985,-0.14770371237341212,0.6664527871629746,-2.2115228245720893,0.013134607875528307,-0.44176164126271644,-0.2985365487088173,-0.8284131863338999,-0.030300774264949887
447,0.29999239327673566,-0.43379693601214714,-2.31930739795591,-0.1131295489106447,-0.14308429942865827,0.6580310400919024,-2.2204772089373104,0.013089720412826938,-0.4183829605416043,-0.2983578629130552,-0.8530889155400655,-0.030303670164743057
448,0.27480545644459525,-0.39591706735130644,-2.379275913953948,-0.1130071949766852,-0.13772869630202705,0.6228299711291764,-2.299669583292223,0.01310744033966361,-0.38928694434351657,-0.29789182239300044,-0.867764079544352,-0.030302887438224124
449,0.23801489841516535,-0.3591231243069297,-2.416750404865001,-0.11307423730643726,-0.13503085390203584,0.6108856168082101,-2.334621166876942,0.013082159013721114,-0.34537677337633654,-0.29398354215818706,-0.910299765344221,-0.03030302563519794
450,0.1975645527813902,-0.34336431684847885,-2.4841250010405473,-0.11331855834091392,-0.1354678973394249,0.5804160294588466,-2.385273026294552,0.013153577180117757,-0.3193835600419048,-0.29324814609461697,-0.932700997993954,-0.030303129527893897
451,0.17210736845513824,-0.31379057281706674,-2.5189015549065736,-0.11778662795026187,-0.13527181532802163,0.5505213463049816,-2.4038646783869644,0.013021263167840715,-0.2835968053108668,-0.28183763118860344,-0.9502170148105105,-0.030302875723201367
452,0.13137399311696557,-0.2917017763198739,-2.570369261809175,-0.11726634337685159,-0.13555592080049528,0.5373228985151065,-2.5073494510138623,0.012642754735342857,-0.26187117568477075,-0.26883764774994945,-0.9701953086764267,-0.030302141621819875
453,0.1114840741307658,-0.277686796028001,-2.6133279230037965,-0.11742347454195688,-0.13086175224153046,0.4920449961750721,-2.5451421491854678,0.003600777182361645,-0.23580192620317525,-0.26916110404243737,-0.9804866576798571,-0.030313405851282282
454,0.07231903201765724,-0.2624357421273667,-2.636232912077043,-0.11738362719410582,-0.12580669239819992,0.4632997672752677,-2.6124480522423537,0.00459029621864126,-0.19837707806309007,-0.2459560136228776,-0.9974440075383278,-0.03023775663389741
455,0.040462726696087234,-0.2503499352655922,-2.7220004558920357,-0.1173950420526189,-0.12223260466332263,0.43426570206122067,-2.6306222323480353,0.004432701010771825,-0.1878134886183243,-0.23950901050628798,-0.9999826260758522,-0.030624811841606817
456,0.00011863542821760153,-0.2419136261545226,-2.740151876974257,-0.11738515881838434,-0.12035671808723832,0.406578537992372,-2.711115622167334,0.003839259152090424,-0.15662062533991314,-0.22421367780703008,-1.0042428395859706,-0.028009383041755126
457,-0.003394242359682307,-0.22304046550407194,-2.790794612762972,-0.11738984344694735,-0.11866490496293614,0.38662273846278705,-2.755692278415948,0.00798009530595313,-0.14723129885562972,-0.20563465283996965,-1.0044674429289182,-0.02259426760611444
458,-0.028324795019106296,-0.21264055525642955,-2.822874639995698,-0.11752874585102213,-0.10949377460566352,0.35253634292142455,-2.807826992074395,0.008251091272498366,-0.13844184853125396,-0.17756413203984495,-1.0103518439747672,-0.018202515090081067
459,-0.05722774112729515,-0.1984893737903375,-2.8448218901864477,-0.11623586297087458,-0.10001615286822563,0.3177625528001287,-2.826628315094286,0.01748525743578467,-0.10524465102379288,-0.17665325446976562,-1.021545690757,-0.00863618284964685
460,-0.06304006783251828,-0.18630298462776512,-2.7943301499751967,-0.11329251494704819,-0.10143165189257966,0.29140286709048335,-2.902396943829744,0.01804719054121575,-0.07373552165822066,-0.14980518027968606,-1.0252835355310594,-0.0028343089944772946
461,-0.08374251325473567,-0.15885901181632586,-2.733187108442755,-0.10859901056753293,-0.07320275442587121,0.2565843438329107,-2.9132796983510305,0.028713573513384678,-0.05960618936292361,-0.14285558192243872,-1.0536301636912624,0.010202108141614638
462,-0.1058501171650185,-0.1431324538026642,-2.6903414133552457,-0.10197839276458466,-0.07054038395668984,0.2436312408754687,-2.8397436249866344,0.03889696593229453,-0.04092906194993241,-0.13744419423131632,-1.069958756100033,0.017917396107366427
463,-0.12307490855038912,-0.12550540098143773,-2.6546052263724147,-0.08942452673825094,-0.06641826319371062,0.18681236261467404,-2.776610941213703,0.04535143639556111,-0.010179494373625019,-0.12727052093551572,-1.1098699267731862,0.028700437411952315
464,-0.13455507970630204,-0.09867044526704082,-2.5922004969945864,-0.08275980716894417,-0.05341609233978856,0.1740944602336449,-2.719883455577989,0.05732060963084058,-0.004148923979403389,-0.11878451191563777,-1.1268929030112822,0.03615821604942644
465,-0.15047714174807422,-0.0875153153566581,-2.5567380797782446,-0.07783385605130483,-0.05200859345571139,0.14562724003074248,-2.651250792219936,0.06392606418203631,0.012523428648712517,-0.11592099400519945,-1.1838086255601863,0.042253411827560844
466,-0.1563670062639916,-0.07307927277379855,-2.5192598381641287,-0.06821831924447833,-0.03227839215036478,0.1257880329842458,-2.5994188869532713,0.08197568054087027,0.043221345950389456,-0.10054514469872669,-1.2059216586824852,0.051467108304085775
467,-0.1612567145171737,-0.056720279114019376,-2.476537947383853,-0.06527363784127738,-0.021945547810213056,0.09245942057012031,-2.5833559748862123,0.08714342103447302,0.05668920857212939,-0.09073030290145281,-1.2238199678443027,0.056614541584138305
468,-0.16567755477652973,-0.02539661179735598,-2.42428270512496,-0.0633637067803043,-0.017752297015050156,0.09384297909358782,-2.494090936680586,0.08976919646285231,0.06372820496995149,-0.09117259967423888,-1.2481966171477286,0.0676948223578954
469,-0.17386483423311905,-0.0005084766188576443,-2.3877231237492174,-0.06046058537707647,-0.013030158770176601,0.05463292036496331,-2.447945647488768,0.11005518057818524,0.0694776013929299,-0.08193017617788431,-1.2808101511631542,0.08976409465205464
470,-0.18387845308226064,0.021165029540748895,-2.343342998248908,-0.06097830550976571,-0.012420028008675338,0.03997316161435081,-2.409131741909327,0.1227196560381843,0.07613909812770218,-0.08160422412204756,-1.2950820433572308,0.1106308445867699
471,-0.18232140370039557,0.043701395164269,-2.2935015900508278,-0.060768402913958436,-0.008237862229678322,0.0179354848727329,-2.364332138042196,0.12844477511022975,0.08643889861922775,-0.07778281150354507,-1.2772874043964708,0.12575701286258092
472,-0.1826633401814311,0.05830460103011273,-2.2323400381765546,-0.06093710426774992,-0.00889184977900248,0.01379635294092939,-2.3105816978750116,0.14298960196362967,0.09144339546607716,-0.07515252039387262,-1.2759497631128485,0.1522447811915826
473,-0.1826012454483889,0.07801888221175698,-2.214818858642137,-0.0563528851567051,-0.008578735366938312,-0.0008398865779316118,-2.307862304672544,0.1640387281495211,0.09534662104208579,-0.0601324798666317,-1.2332387801214688,0.15479452396030002
474,-0.18260861928291056,0.07870890392349034,-2.167562420271741,-0.055903564715558504,-0.009184631453988325,-0.03981935747379124,-2.2473610689120895,0.17899605602822047,0.09674374920322172,-0.05401055945434597,-1.198020374338882,0.18605688366564893
475,-0.18260363295527857,0.08770923991220617,-2.1489262821900845,-0.05053419540230589,-0.004877646886079886,-0.04614416095512078,-2.2102734621668514,0.20953548425548485,0.09969986745158248,-0.03589916297736944,-1.1804329216753944,0.2250479597048986
476,-0.1826614187013856,0.08779873031645165,-2.0925892290524066,-0.0452030474647975,-0.004353378569585908,-0.050325852942320864,-2.2132465101760177,0.2408216070196698,0.10190266098125648,-0.03458464671467809,-1.1560328059399976,0.24059838080807724
477,-0.18228850961977555,0.09389188454323061,-2.046407351510214,-0.043727164744946444,-0.004439208239315637,-0.07894264897774118,-2.1667320050263124,0.25268326756476456,0.10763653966911263,-0.01772216799802319,-1.1616383582331962,0.26404856557987927
478,-0.18461376493820195,0.0960335598481109,-1.9345611685422872,-0.039860372290231684,-0.0035098233933667853,-0.10446082051273534,-2.1297224450920504,0.275616058635177,0.10827725344735327,0.001030740014281789,-1.1109577165382636,0.31554338983702457
479,-0.1873411460053611,0.0951514136667979,-1.8405333137302795,-0.039454475010451316,0.0004722810240732592,-0.10514576800700604,-2.071294393145802,0.3032610573099247,0.10823101172840216,0.004820827843706201,-1.1031550114372228,0.33962708150234155
480,-0.18685454726885534,0.09966073708784126,-1.7663182406016682,-0.030219826315253905,-0.00011959532168989244,-0.11920170131730462,-2.0346405004747554,0.35599113564096113,0.10822030377864336,0.015411781782725282,-1.071075861033914,0.37005585612206493
481,-0.18705125729407365,0.10000489577904126,-1.6765737501482867,-0.025784909543284416,2.5869976964638724e-05,-0.1257474492748754,-2.002427741175621,0.40012419438523583,0.10822677937115212,0.026789216403955554,-1.063917089264484,0.4138984017929205
482,-0.18688657033268913,0.10465434735025232,-1.5937992896458326,-0.018162445404188488,-4.61587692616375e-06,-0.13872918598235398,-1.8770909780547138,0.42571175585469895,0.10822464822109462,0.03081255435498608,-1.0300939342850304,0.42068049723051465
483,-0.19153362762262552,0.10420711393129901,-1.5149791543536402,0.005877235921157956,5.716254921225075e-07,-0.13944304046343983,-1.7180056715488858,0.48178354787905514,0.10822525781099436,0.030220101110142727,-1.0087486917411592,0.4723804620096192
