,I,aVR,V1,V4,II,aVL,V2,V5,III,aVF,V3,V6
0,-0.006224066390041493,0.002074688796680498,0.07053941908713693,0.07053941908713693,0.025210084033613446,0.0,0.037815126050420166,0.037815126050420166,0.0425531914893617,-0.00851063829787234,0.04042553191489362,0.027659574468085105
1,-0.004096834823627886,0.004206824764594704,0.07993700297811929,0.07903886436841959,0.025210143403645482,0.003665871784935608,0.04273979891891972,0.03781424431479705,0.038063010294550115,-0.00854092954538097,0.03746658987460282,0.02916089687180392
2,-0.004172086102112192,0.00410273762312569,0.08807934922451353,0.07879940145607961,0.025209792482789522,0.00044861227858350634,0.04607012021485086,0.03781946169913997,0.03900261313063471,-0.008362610380347966,0.02816236634804303,0.02604746321337815
3,-0.0041421945348308654,0.004288927901672122,0.09417216881871439,0.07857713291032375,0.025211686829924633,0.004765368773382812,0.04911731023693813,0.03779132678087169,0.0438985109176818,-0.009473446492612989,0.026197495175119132,0.030341154420467746
4,-0.004151417574340355,0.0035066969133258513,0.10039745239256431,0.08055854480777484,0.025202437881283537,0.004024696888531907,0.0677589974232184,0.037928266673809385,0.049150525807327074,-0.015006366786592265,0.019758419799567033,0.029672139722630636
5,-0.004148472496488741,0.00816406805266939,0.11513485105282971,0.08338665277565763,0.025242223261146685,0.00436235208463514,0.07904066374196488,0.03734247586175763,0.05045819135144802,-0.01731663505513611,-0.0023693419274632083,0.02969747552945662
6,-0.004151166151963534,0.015929900052692233,0.13047405670055273,0.08290167818348246,0.02509117206307195,0.003724447723173394,0.08407475307812588,0.04093494916832481,0.05688012963253117,-0.016962480539783175,-0.012988244776738694,0.030220835349248243
7,-0.004143630604450198,0.01640615098918447,0.14273281857428946,0.08300352982223337,0.02557871501747583,0.007751344989955627,0.10658364320229391,0.041921974612629295,0.0595121984589759,-0.01701763736537431,-0.034557872001290964,0.026134259218724414
8,-0.004164954873986155,0.01995376794642678,0.14914667385217928,0.08298524383239492,0.021283831943611907,0.008308823153070495,0.11329167592609819,0.04579583501968278,0.06360898760113083,-0.017059396117542973,-0.04149001267613272,0.02548846228469312
9,-0.004129390424272138,0.02481388884273879,0.15353710064711387,0.08298769529325212,0.021023079802903553,0.012682092886013924,0.12253226620860089,0.05050286006520169,0.059673484721947424,-0.0169848280264195,-0.0637263921417869,0.025534220378114175
10,-0.004010585179095015,0.0248837319543626,0.16294329731043786,0.08298771398690487,0.021019121369779112,0.017395613935839684,0.13201548072281713,0.050090059036331,0.0596219701901809,-0.021906798227269417,-0.0785380971282497,0.02538100654571448
11,0.0008938848260074642,0.02472895951069782,0.17076294919325405,0.08298650711996208,0.020790446464904033,0.02146559234936517,0.1399965915059415,0.0524807562033263,0.059718666563901616,-0.030935739073314473,-0.10054240477302247,0.0266591141239665
12,0.004469564566116408,0.026143756127035015,0.1696422329312661,0.082993824341857,0.022440040689121494,0.019993532985632414,0.14658359349407812,0.05937771201299185,0.058394791736554576,-0.03514401047294496,-0.12059155762352364,0.030199889749985036
13,0.003998060772357167,0.02804885854521619,0.17198436943031056,0.08295581613724846,0.025642763835726935,0.013325790154762958,0.15220646636939683,0.06069339387251016,0.0551532543861268,-0.040308829222068944,-0.15428452245989754,0.029872818876172855
14,0.004457671580988093,0.024065999482082184,0.1746547870416164,0.08312894889090243,0.025112199001541317,0.0027526987375128585,0.149021318859008,0.0634222351256279,0.05355829347756356,-0.043024791722259224,-0.168973712289484,0.029052692074464453
15,0.0021046277337962386,0.02709584831806764,0.17416479250079403,0.0824229494158015,0.02522933353035255,-0.00042597744529810407,0.14013142035253878,0.0629502294363816,0.048409998617070654,-0.041899998134734426,-0.18120398208848282,0.03608340089333523
16,-0.003542060228275693,0.03242520514444698,0.17438915511198438,0.08650971630363756,0.02520703866239641,6.633294120353021e-05,0.13503367212806283,0.06303603729924516,0.04341748978005149,-0.04623886404244148,-0.21218464715333807,0.04263593704006545
17,-0.0035801412061523025,0.03305111631940976,0.17403748227023966,0.08375118452922733,0.025210357916676678,-1.2642932599926313e-08,0.12594515234905204,0.06302467864995989,0.04235158640628497,-0.043241300851200794,-0.25214880749759555,0.03829560327298899
18,-0.011923935879360003,0.03692071739419266,0.17843144089363996,0.08287632505210711,0.025210127190064758,1.215679638119323e-05,0.11927648819706448,0.063026087345852,0.04269575717319341,-0.04249976356031768,-0.27215884696607007,0.03827541865893531
19,-0.01239896515359503,0.041569994728521416,0.17838289923179163,0.08287071623215045,0.025210039208753948,-0.0002443571547753933,0.09878445835616634,0.06301332387134188,0.038168145180675614,-0.04254390662854713,-0.2961747631812138,0.039122269569207516
20,-0.012896876704179798,0.046572838992020416,0.1782522570082045,0.07856203658104459,0.025210185355007634,0.0018674604202666486,0.09063001984098579,0.06309979377816566,0.03838543386968095,-0.042527748906859134,-0.33100825109952586,0.0430196774682161
21,-0.016989629903497203,0.055492527072376605,0.17969871052891428,0.07888059498471876,0.025209608363679817,0.009382397405260012,0.07754560526981949,0.062650508356504,0.03825133747984389,-0.04276789051056113,-0.3640865381269343,0.04243477819311191
22,-0.01640044175220491,0.058240410709923106,0.18303136893461897,0.07914586275456095,0.02521222220815459,0.007834779474764984,0.06538721366661804,0.06530923979420855,0.0383919521527711,-0.041191201001409106,-0.3831440264527881,0.042571808237740635
23,-0.017018170134654616,0.058419807278216024,0.18238745055175054,0.07685390127945625,0.02520153769796315,0.010725341219374164,0.05246333307635212,0.06753435030301483,0.03790784170522785,-0.03666707388825585,-0.4056185294555021,0.04257880686496711
24,-0.014234089854271291,0.055753221297805355,0.18290141513195832,0.07463189883760804,0.025239806173963552,0.01545703603405214,0.03937281409524567,0.067199424121028,0.04076506622527116,-0.02849483876524446,-0.42431255450863786,0.04246464308163062
25,-0.012180295994784957,0.05365521931714762,0.17960250107786277,0.07227812371290726,0.02512782496110666,0.020763577962127293,0.025628231119614354,0.06716591116741855,0.043302433058585346,-0.02385704197273921,-0.4643411629015887,0.04269080625038895
26,-0.012391660276256898,0.05393309609898969,0.17440450131993665,0.06684019813418393,0.02531651551642589,0.017202621708676914,-0.005898029649709916,0.06723325555629926,0.03880886306864749,-0.006275928669684414,-0.49020105739594677,0.0381396180974764
27,-0.012719298120217363,0.05409545216079906,0.17425337830152177,0.06651111930230234,0.02082983156285096,0.012558806009514992,-0.016245225795331594,0.06278554392126048,0.038440413951318246,-0.005048134994134125,-0.527340047553976,0.0385459796110256
28,-0.008337377459741738,0.04990990661768099,0.16519706407709842,0.062221855049967426,0.021261334349239682,0.012181476272467054,-0.03850908463735213,0.06308616010486916,0.033990202659464175,0.026440235411729962,-0.5332395297911725,0.03714659244433071
29,-0.008107217032906903,0.040589879993274236,0.16088784775396167,0.05758098103736708,0.019859442234765698,0.007509906771220183,-0.055140778504066956,0.06324336231261656,0.03367716678694196,0.04679591236625693,-0.5618944489935502,0.03357021205666042
30,-0.003589009321534162,0.032939037030273406,0.15693631003826838,0.0535868966440371,0.01636456878064413,0.00044325707062507546,-0.07852140972165665,0.061431395910957386,0.029394767418197583,0.05323696563023701,-0.5805271658591763,0.03426017333884971
31,-0.005467931091401502,0.031434172689215806,0.14754578991656217,0.05432254186613883,0.016914128961634533,-0.002865048908924947,-0.1096900973821596,0.056418299999216805,0.02966615453085285,0.08707104732700176,-0.5925620724744195,0.03359605834405332
32,-0.008349520606519592,0.02187721447901232,0.14068367700468176,0.052203937870641225,0.016784253217434607,0.0005129791160208913,-0.12847430649160346,0.0514169450392018,0.03134763810806947,0.11678590809200672,-0.6092862739710158,0.03734770815985033
33,-0.010344895444023663,0.00918937414162129,0.13626413201806167,0.04925379750037105,0.01680888611784701,-8.265971282290531e-05,-0.1455548757746055,0.05021274665949783,0.03657188893739148,0.13677759571447956,-0.6256701036501956,0.03864969279021016
34,-0.01279263687091269,0.003811043597944653,0.1258951623323526,0.050450968840141296,0.016811415631422258,-3.085237307430853e-05,-0.17819673865791094,0.0505665804118978,0.0410498435601172,0.17493156846174637,-0.6285827237081058,0.03403863634080374
35,-0.012434031715657578,-0.024003246142011193,0.1206366785606263,0.04606706566404892,0.01680298378471473,6.287415463854566e-05,-0.2041327567157891,0.0460270054856481,0.04621226248468189,0.20325388279018725,-0.6331622135241908,0.034079937249881544
36,-0.012299543234034736,-0.04524373841203301,0.11613362839069209,0.04932984477452886,0.01673290700129575,-0.004681362016969223,-0.22988315390968464,0.04188798301836171,0.046833892415970205,0.21882651710945894,-0.6424524168619871,0.034230990481308315
37,-0.012710710553630301,-0.04892404611617486,0.10751843597849756,0.04972917864668519,0.01751262595263642,-0.013788822410312115,-0.27077442339910857,0.041363487039390676,0.046809925500499755,0.24678440481433053,-0.6426827586394608,0.03264518812982289
38,-0.0038534382615168137,-0.08049733722059615,0.10740813233953535,0.05395525647920196,0.021536004117514225,-0.017138382686179322,-0.29636586816271115,0.035823572297866965,0.041947661405431796,0.28465400155597426,-0.6404033361356162,0.02934454411936507
39,0.0010072937587642427,-0.1161746089459386,0.1022537739860173,0.04884416594258546,0.02047807142555186,-0.027526468304823835,-0.30865298525061396,0.033307216967724616,0.03821633795147489,0.31405286997232656,-0.6291001398091939,0.029889983983328365
40,0.009999399279892284,-0.1441382086973381,0.09736241615723537,0.04456559473537383,0.02349239266902843,-0.04208161061065225,-0.33277093736913477,0.03368828744053478,0.03710678194642106,0.32039069404803944,-0.626231892444481,0.029757255081601687
41,0.012687704249449986,-0.19620782514994534,0.09546762996858393,0.03945000201454218,0.025063089236461698,-0.05722530610983811,-0.35992504824088295,0.03357408242800701,0.03367702863642416,0.33800951440602944,-0.6224418430901617,0.02982073111591152
42,0.012311490558544675,-0.23498907699646662,0.09295455191422812,0.03744226642191332,0.028561654937442067,-0.06648917475215403,-0.37416753561145627,0.0336888155602414,0.03368106976278307,0.3625226274731422,-0.6078315519557917,0.029740423465797004
43,0.012788298005078146,-0.2813693606836715,0.08790822729643234,0.0347874142417695,0.029509151803705207,-0.07424339529566013,-0.4012173247184031,0.03352142512513348,0.03700007370548448,0.36368840534298763,-0.593572674431545,0.02956074961591783
44,0.009908622278689164,-0.3394494896139519,0.08357560165743294,0.03293903056384102,0.02941214028982739,-0.08373317453795505,-0.40989589773230695,0.03808503595203905,0.03812149687488323,0.33416239276784615,-0.5740742095206516,0.02577032715244427
45,0.004711105654432292,-0.3811338980547865,0.07460951799421633,0.03321279848202553,0.029430474491875528,-0.09273235182593521,-0.4253930623211939,0.036603649822679135,0.042060815458653256,0.30838743298383325,-0.5490316044361333,0.030542854656978338
46,0.004030650030578768,-0.45975696836435687,0.06597600928340114,0.03323276328274197,0.029224128650789147,-0.092268778166998,-0.43668906523972395,0.0273857883917273,0.042589671860271926,0.23935594882247746,-0.5465312164655255,0.028322160436074266
47,0.004136221621909079,-0.48562685801109073,0.06678134142657628,0.03331651522831486,0.03065609619103093,-0.08339766842683238,-0.44903428689721786,0.025165635761716577,0.04274222036855435,0.21175854783771664,-0.4962274556888286,0.022816682566417522
48,-0.00025997055765247356,-0.5398474028991591,0.0648667980769561,0.037606706698666545,0.034480451535006604,-0.06851006128037461,-0.4578647766707286,0.023866003468710074,0.04785533891966335,0.21752864454127807,-0.48803681139819677,0.021247054551742674
49,0.00029102121289668675,-0.5710399540341776,0.06259909916336509,0.037480495945279996,0.030939539122162484,-0.06327543660996242,-0.4573627032467635,0.015013498534878116,0.051105120430104185,0.23113328300411803,-0.4734847279979751,0.018698974738229283
50,-0.0012596219863055395,-0.5964643468368382,0.05756114365517966,0.0358732514788634,0.029588572455873523,-0.03375670010423166,-0.4662309641365977,0.01224141331286252,0.052676906660849517,-0.11104289379091231,-0.44453603222704147,0.009163234045743186
51,-0.00458263708723067,-0.6130176080480252,0.05333057947617554,0.03315891440838502,0.025952038963580636,0.0055816150720881625,-0.461426221714868,0.012651282285031377,0.05552099189387795,-0.09671020618691738,-0.41130779167482934,0.008515350745353043
52,-0.004045075663176482,-0.6091130836213322,0.05407237157468959,0.030837924847917385,0.025139109535935726,0.07433134376857875,-0.45269131206582486,0.012604614419076008,0.056175926440156405,-0.11004952274499832,-0.3970587213296824,0.008092726032519773
53,-0.0041718355708889494,-0.5852102699303227,0.053869872877418117,0.028734625315218955,0.025211564394791226,0.15037364146589968,-0.44796931417875163,0.012602905203379517,0.04872686685348777,-0.17507486532400612,-0.354482814723523,0.0038637062396114034
54,-0.004145223201314407,-0.557239561900453,0.053915857232396815,0.029124020269407084,0.02506615602361268,0.20307731913251706,-0.44522472201971136,0.0126059668641757,0.04688480563409976,-0.28812841463119493,-0.33225195453274414,0.0043800624701980095
55,-0.004149879581048596,-0.5191035984738617,0.049543524219517646,0.02898071756098734,0.026355414183754977,0.27743314252472817,-0.42771614444085,0.012604755624051221,0.04267681433385487,-0.299232860139865,-0.3127674569602591,0.004195182008169623
56,-0.00414946572977294,-0.4788512501651347,0.04985728873793666,0.029024066033352183,0.02841947908700687,0.33765490016041766,-0.4056020580228575,0.012605117200736924,0.0423243441214161,-0.2759222225230627,-0.2812733049460737,0.0043844438995846
57,-0.004150407934212393,-0.4293210362907035,0.049980474516613194,0.02465774278939227,0.024663277339544785,0.4629919272589158,-0.3980108726696872,0.012605024653804201,0.03282852082435013,-0.27265055140682715,-0.2697326691557974,0.0038163513467292212
58,-0.004138507264980795,-0.3936371398622097,0.04836747996275414,0.024945654476594716,0.025333615721385403,0.5647285064572618,-0.37160705810996814,0.012605045509328911,0.029616603961345068,-0.2616145994615993,-0.23796272436121682,0.007915684671121461
59,-0.0042172418393303735,-0.3325960321866119,0.04274887839974687,0.025160877622621265,0.02518532075066298,0.617196798117587,-0.3521654858260711,0.012605041444780151,0.029749203572674052,-0.23958756322100055,-0.20286034820390192,0.008557353337440558
60,-0.003803678160179081,-0.2967336838681962,0.041712666519347734,0.02313779380343048,0.025215601241874087,0.7090847422388975,-0.32394197581336115,0.012605042072711228,0.03019334264277886,-0.21771108205202463,-0.19559388817882656,0.008534425509589723
61,-0.006202600918181743,-0.23392864678600642,0.03813820310491083,0.020352454547162304,0.025206847561159516,0.7233820407433276,-0.3099479098793183,0.012605042017719404,0.02719566858868188,-0.19501190709886948,-0.1795916060218228,0.008345485560370552
62,-0.008650608538775407,-0.17679879042787008,0.0372004846659826,0.020830967474074407,0.025200152052964792,0.802467110471996,-0.2992270199585523,0.01260504209405997,0.025256393614239255,-0.19128710863333917,-0.15629552770326008,0.00964488193687627
63,-0.008230857930777031,-0.13405119567264626,0.03731215903262011,0.020731495913957898,0.025347716193237942,0.8037792603133684,-0.279870386229031,0.01260504144028007,0.025577314186417566,-0.17337123612637564,-0.13668656219472824,0.013221345939427554
64,-0.008303778693416117,-0.10502437638984749,0.03294281073076844,0.020748943690469694,0.024205062837851326,0.7216541355865778,-0.2716989967269768,0.012605045113507652,0.025527357214204828,-0.15832718335549534,-0.12736911124621114,0.012656293088008821
65,-0.008310171103347481,-0.06453899888079218,0.03329763248674557,0.02074687709714197,0.020461660251946567,0.6896561739290469,-0.2417602264897184,0.012605027835698352,0.025531945056525816,-0.14879342315429764,-0.11475735614246939,0.012789016091244939
66,-0.008318900484090898,-0.040579003968122244,0.03316333771933946,0.020748025908196504,0.021544977298726422,0.6488857299267298,-0.22407784819845464,0.012605099177706235,0.02552409489367972,-0.1439462067758071,-0.08249517775843458,0.012761908541967152
67,-0.007878614118852528,0.009817381401760196,0.03320523771765806,0.02073544843349351,0.018304724900901584,0.6001304530602409,-0.2060142331967411,0.012604842043081143,0.025590750532818823,-0.13300006709839757,-0.06849742267453808,0.012766459008968757
68,-0.0036916434671895046,0.03618087220313415,0.033184625908239215,0.0208165271790375,0.01656793567896432,0.5359289096086751,-0.18730940578387512,0.012605598128172553,0.025210251370322453,-0.12087030208377936,-0.06002622756071414,0.012765961438132741
69,-0.004602465703308572,0.054595734767856105,0.033226904444340025,0.020397791303592334,0.016841659887855805,0.436972489196893,-0.16760010566687888,0.012604317935879359,0.027448712284718364,-0.11862491650846348,-0.0470323496810264,0.012765797878071243
70,-0.0021642229993792264,0.08484659027834736,0.033096054017424464,0.02283980730479095,0.016804631577000677,0.36073126574128495,-0.1445811702368342,0.012599946718582786,0.03017313957322472,-0.10502649248633311,-0.036815625537576044,0.012767027133642304
71,-6.474925254913082e-05,0.09389920392307463,0.033411738287097564,0.025359232760967666,0.01680696860005322,0.3228567242040469,-0.1287209108652709,0.012660556503337951,0.02971488995856418,-0.09423468102936523,-0.019686468041559192,0.012759993624453575
72,0.0028015709711039657,0.11984265765994896,0.029012688400602362,0.0244024407668643,0.016795510381860865,0.26818821184214503,-0.11187667630992759,0.012256580557889462,0.02977550323964667,-0.09005609622128491,-0.0047565832382264256,0.012794081447045379
73,0.004362916111137745,0.1329133797127352,0.029115300301949042,0.028524148254009573,0.01687950479149538,0.21994290597631655,-0.09602666148198682,0.014669693808580882,0.029845938566719417,-0.08946591749360304,0.00439149671405872,0.012650003049629993
74,0.004122309497922521,0.13650761926047061,0.02901750775481314,0.029050452543841226,0.016438392224105793,0.15509095485934474,-0.08149721563819261,0.014922479940038142,0.029783227679592433,-0.08511409068565652,0.005205591836715035,0.013180623116141014
75,0.004149460159040287,0.13692523009087684,0.02905419850450783,0.028912415105677908,0.019040812939778995,0.14289433453829634,-0.07581759785078046,0.012320401967154768,0.03436415756744333,-0.08032024393073772,0.014560702953332137,0.009167427079300303
76,0.00413059490749634,0.13646368136071432,0.029043395170594417,0.024717705822981703,0.021334161726346425,0.1029274718537256,-0.0662261822694492,0.012276846260659263,0.03320862743505766,-0.07649388198386738,0.01854228667837787,0.00836756291244611
77,0.004322398504113036,0.12718691813978847,0.029046206378698498,0.024060838641781122,0.020949141267666744,0.07016881491122587,-0.04816406905092014,0.016412265602149565,0.029185403692025647,-0.07535531151514338,0.023509254158589375,0.013087992004474238
78,0.0030070774277896704,0.12449987693302512,0.029045375617499838,0.020290797727661635,0.021016397986221895,0.05494071644158082,-0.03986739103490046,0.016810767364266246,0.030790476572121753,-0.07227673497754888,0.028023853399439528,0.01732693703871862
79,-0.00045190884814507164,0.12317415060127462,0.029046166254328376,0.020761552929838396,0.02100814359710727,0.02661273640177622,-0.028706048681981487,0.016739705169522917,0.024603466446637943,-0.07000503208688107,0.0333393414597129,0.016638318484457394
80,0.00013903040806864187,0.11808778842815365,0.029044544494025652,0.021162927471026508,0.021008129304989263,0.016382686486634896,-0.013435462683576604,0.01755068044985144,0.023747317937960203,-0.06822581834047907,0.03383631690054303,0.018852044949571954
81,-0.00014126657495737362,0.11357820810105447,0.029044899816161627,0.017765374453988046,0.021008354321878076,-0.00693491460641255,-0.004984721445507687,0.021686359908239153,0.025016323441551504,-0.06468000982902715,0.03813541628993949,0.02123178922201097
82,0.0004106200054079922,0.1091020347311407,0.029073384440470515,0.016419798342267502,0.02100946485026397,-0.01826238319010163,-0.0015162090951165441,0.01940608537986281,0.03319668123669383,-0.06399018536315755,0.038221654373991804,0.024092540957470678
83,-0.003593043727184159,0.1040965200058005,0.028836742664954854,0.01661785039620285,0.021003005291928143,-0.022470062864518508,0.011073966642026017,0.01404124620012452,0.03399227044384962,-0.059662333983202365,0.03875665135894623,0.025678416476090152
84,-0.0042311791292074675,0.10379743588807154,0.03038016921378182,0.016597942639716683,0.021031596468787196,-0.027179782861866515,0.025299126066400144,0.01227104829601838,0.038238258144813526,-0.05962800737966532,0.04401718303617318,0.025686971029625173
85,-0.0043219724940900565,0.09930863789414238,0.03365691701274227,0.016603254736919437,0.020920647755657985,-0.03226375886889378,0.025977501646363896,0.013004096066726865,0.033883871567538,-0.059547037810352726,0.04724030757505906,0.02125477657817576
86,-0.008362656656336075,0.0952141389272444,0.03297607082105855,0.016544443645194674,0.021290350066623852,-0.03382589720871432,0.03428041953348314,0.008658095993066606,0.032116789784813846,-0.05958369531337766,0.046303898323663405,0.01683029863065602
87,-0.0016546533405760633,0.09551459639067475,0.03365319046093918,0.016897178779021284,0.017386511653312824,-0.03357329856568668,0.03482797323562435,0.00842528692331301,0.023445849400422634,-0.05957139616827526,0.04948378990457356,0.017101267525982886
88,0.004579911275808355,0.09541433993837646,0.02975316286419043,0.014810726156316529,0.012595983939865786,-0.03362841401981692,0.03842551339480683,0.008349115562167496,0.017668695134730048,-0.05957744212108735,0.051429995985621195,0.016991108086502633
89,0.005837379274948881,0.09543395187814482,0.02896954193612767,0.012059845780880154,0.012630203544984626,-0.033652978823010944,0.03722055389862538,0.00864708594526381,0.006333386179112064,-0.05956505190092097,0.0506964355281831,0.017057140141896066
90,0.009054852636640728,0.09546553688976157,0.029042777086804833,0.012524631748457504,0.012778427421684524,-0.033041256162861875,0.04119063927554472,0.006909249712837091,0.006667331715822785,-0.059606793249975164,0.0551569973977651,0.016897429583249062
91,0.005586362648595122,0.09532198399001314,0.029048683954907655,0.012453681088092462,0.011343485244725962,-0.02925394700788562,0.04182218572353744,0.003776146766690931,0.012480615090055283,-0.05948274344978491,0.05528432163273227,0.01745900870931651
92,0.0007730236754697369,0.09579038331112406,0.02905881283202111,0.012397589530998012,0.007591558165259844,-0.02790167951700588,0.046161380459867334,0.004295970831115466,0.012686302226058559,-0.05971833841141559,0.055339328267803786,0.013352872105379865
93,-0.0036400642687627696,0.09159872192304816,0.02896219488052844,0.012489480538559547,0.010848780505866384,-0.025178580359402677,0.04644239054430674,0.004184366031760076,0.017278598568282816,-0.055220159662095786,0.05532953656744267,0.012723212725335123
94,-0.0082916574178764,0.091300841135401,0.029441477574558807,0.007851560193519241,0.01331088372102823,-0.02265865181664103,0.05087774578639775,0.004202285794827992,0.02189665984956575,-0.05501579027611946,0.05522535839521219,0.012755013084931382
95,-0.0038992092355791316,0.09085533627286822,0.026615812973566882,0.0039045036022178786,0.009049556095403472,-0.020739744116015344,0.049988245958555264,0.004204320260222283,0.026939418072107407,-0.04954190281416494,0.055752534981411556,0.012772634042454227
96,-0.0038518170019625404,0.0871565201697861,0.02461456153996709,0.004161883755943103,0.008339156956305162,-0.021048414097910834,0.05231867272237919,0.0042198804657898785,0.029810169356193253,-0.04682736792981916,0.052624442820441056,0.012763654395369263
97,0.002780053784592613,0.08474556133635358,0.024936767969210957,0.004484864175212177,0.008398885489251507,-0.02100611552997573,0.05499329300005586,0.003998109993832399,0.03171100316067237,-0.044834381326896815,0.050920304466863124,0.012766725804228402
98,0.01035612856153399,0.07795336214143327,0.024906871292896243,0.002012433023182736,0.008402424184781968,-0.021011382963164044,0.05454808873490154,0.0055996005226087294,0.03457036404389394,-0.0421984368901571,0.0507684474649956,0.012765195423636836
99,0.015262643679827204,0.07894038469915204,0.02490973080534506,-0.00034163665346497113,0.008445311089829169,-0.020964860273268802,0.05463356406499627,0.007171676632918096,0.03346589193042749,-0.04251184575990414,0.0551322409162309,0.012768340019212036
100,0.014509078113876299,0.07923668476876539,0.024459814929386772,7.546813477871966e-05,0.008166456630042633,-0.02128946168609597,0.05462079857325866,0.00371742441848764,0.03781738863974632,-0.04290112070761574,0.05528595056648502,0.012758301314333918
101,0.008935319432061788,0.07557080854285339,0.020563005293744975,-3.903233260185639e-05,0.009973424450144208,-0.01929630064204756,0.05462168735125119,0.0041902230186808,0.03801824189056414,-0.03855082410465642,0.05534518069906249,0.012783745753994748
102,0.00813990805684103,0.07457151746008048,0.019516840551539506,4.6815903349952856e-05,0.015673509076717038,-0.016818772673656213,0.05462196712897881,0.004582700880068342,0.046996163605385104,-0.03831023160421736,0.0552930238080099,0.012769457330888124
103,0.008388467772947987,0.07469534239670661,0.01610496770528445,0.00018266985611234301,0.016536900744243195,-0.014177005982520348,0.05462180703952677,0.00040123013828853756,0.05153597141538294,-0.03838903514795525,0.05541463361612293,0.012371241923735074
104,0.00403953835326297,0.07469325975443121,0.016825500903777612,0.003939460618041388,0.02047171256456319,-0.012322058202849014,0.05462185978786132,-7.012951155889327e-06,0.05636069300501926,-0.03744317397245391,0.054895659966309476,0.008103718549417152
105,0.003622705854431077,0.07467576924498781,0.01613074762060205,-0.0005066168030527053,0.020913183548477238,-0.012726219853502238,0.05462184899579369,-1.6666436089823784e-05,0.06116528827032469,-0.033499953813888726,0.05795353362506177,0.00863967596984992
106,-0.00040040478193413076,0.07475880428687554,0.020078741084133565,6.293562718200507e-05,0.025351999491016585,-0.012512725198010556,0.05462183728453103,6.427194060930738e-06,0.06523088377092663,-0.034556132254866194,0.05983963789289434,0.008448814665037505
107,-0.00015083047381440182,0.07433744671143619,0.0207652745207669,0.0003674526527820913,0.025011445579545107,-0.016926768734154697,0.05462188818736128,3.5548000456534168e-06,0.07354617100454108,-0.03160036759800381,0.05953206801204059,0.008642571596925896
108,0.0017313126824510762,0.07677347563535906,0.02069816920840871,-0.002489468203621182,0.026032622526404627,-0.017359432120388898,0.0546217557096965,-2.7733656334725203e-05,0.07622185531287792,-0.029338779966394668,0.05957893455391057,0.008063786488728898
109,0.006685769893750227,0.07915501153749123,0.01632236069819926,-0.004428690229240806,0.031380406326680675,-0.021557900358886828,0.05462183683050695,0.0001195360339472662,0.08348073910853065,-0.030329771794618383,0.05957679910051566,0.01220648615195838
110,0.011465311278300113,0.07888261440674886,0.016705894838204012,-0.004093997772479675,0.03412095339165064,-0.02048111702534705,0.05462382884666223,-0.00044314123170439913,0.08523361309786497,-0.025632710753111337,0.05954759446196379,0.012772760035333921
111,0.01290707493389762,0.07851377973510534,0.016564908178589806,-0.004173171348511955,0.03275690480465779,-0.02340847388935961,0.05460616751027029,0.003498345083412352,0.08511226951727771,-0.02977900800257534,0.059753450261015056,0.012585868888610593
112,0.008510026296804547,0.08276590382818604,0.01660597979008909,-0.004164272233763965,0.03966493790730503,-0.02508186596346047,0.054709949302539425,0.004272109155557891,0.08068751377698756,-0.029705965102229018,0.05840519762193297,0.008156191462091233
113,0.00833226132219139,0.08295907336876238,0.016595549023164013,-0.0036597597384158873,0.045935630916179276,-0.028453739496428695,0.05420773397712936,0.004206811848318289,0.0802526933572276,-0.029835464276555514,0.05287250345589123,0.008630933653302128
114,0.008037509989664945,0.08312451561672529,0.01659793623118467,-0.0004198864121644542,0.046278655519609746,-0.02958826924603738,0.057223811650843226,0.004195420416591498,0.07579716290154394,-0.029698376836757925,0.05062907158051347,0.008479234437342777
115,0.0022041333089728807,0.08210418486872258,0.01659735126151734,-0.004732734692285709,0.04661864508294558,-0.0293714623937903,0.05904777480709874,0.004208308079225799,0.07859121784488564,-0.030168046901105087,0.05171379618915311,0.008510134990598932
116,-0.006188207223352283,0.0783889563889428,0.016597711325900464,-0.0038971963930086524,0.05587889816173404,-0.034037749006212176,0.058871451484176794,0.0041768018464295835,0.08084384779666692,-0.02749944947365864,0.046964428813966404,0.008541689985745752
117,-0.008970148788297024,0.07898213797226832,0.01659771337183128,-0.004621956001514312,0.0596737042496728,-0.03881960903604444,0.05872098077339635,0.004313510944529974,0.08338787357829297,-0.025084519950252543,0.05100378483601768,0.008404567050153562
118,-0.005662248141101037,0.07869297529827896,0.01659203283990959,-0.0012955535194133388,0.06650660947467421,-0.04235373454707389,0.06320452131671331,0.003749135885477416,0.08796218291689534,-0.02600203071598229,0.046787179106745666,0.008756952033444303
119,-0.004567701119051096,0.07928465216724107,0.016637676332602932,0.0002047940240862445,0.07398895086175199,-0.04201613234357507,0.06292809279363487,0.007362461093179554,0.09684031680188476,-0.02172010536609682,0.0515111653969442,0.004240318826328062
120,0.0019720906908521412,0.07546164450668912,0.01637717704552047,-2.770252181580671e-05,0.07848090129001005,-0.0416301205902307,0.06305860664735378,0.008545515709492316,0.10201001098150762,-0.021254566351344286,0.05067019850811955,0.004328957837424722
121,0.0114855473598336,0.07459565708872848,0.018049380083342607,9.544095918770216e-07,0.08224663528323992,-0.04477414018639602,0.0630092391809805,0.00839373977692247,0.1065593201189648,-0.02126364893477141,0.05260798685457262,0.0042061555937746315
122,0.020691093389780507,0.07469004149407836,0.023807497981985948,1.0179812318611562e-06,0.09519176688826254,-0.04681214786344347,0.06305888863924956,0.00840407637834171,0.10612733534218938,-0.021283265133535297,0.05563527574453707,0.004376100904863036
123,0.02526023365328366,0.07467173161091559,0.024230660630933824,-4.70538317743682e-07,0.1008347332188813,-0.04235336424717838,0.06290600636318565,0.008362769997732935,0.10758239604674943,-0.02127437241693991,0.055669744997369514,0.00372629132664626
124,0.02986190113529818,0.0748662834050843,0.03178947118165775,5.8322485711737364e-08,0.10097484310941049,-0.04201566135457734,0.06339459511778439,0.008672003019485822,0.11083002364239124,-0.02127721652968554,0.052260226550852995,0.007314121052715312
125,0.034782994006291985,0.07351802710495695,0.033344450115602775,4.55442581455493e-07,0.10684072096046585,-0.04197599346478954,0.05909592762928652,0.006740278216436911,0.11223645692317977,-0.021276438627623573,0.05079050768220046,0.005602923516675822
126,0.03727594882664849,0.07012214941049265,0.03320777406950532,-2.1770495457671596e-06,0.11473300806640858,-0.042224092281419,0.058851347701475744,0.0037938638600991466,0.11814537594690272,-0.021276645117562887,0.0512780306564947,0.004089684783164086
127,0.0396840882326002,0.07052969050731625,0.033072588632873295,8.589716658727732e-06,0.1225084986782525,-0.04070922061639119,0.058663898930887186,0.0042879910440706635,0.11877616750674376,-0.02127653511130676,0.04675246571382752,0.004233982595580449
128,0.04092502578870885,0.0709771964583665,0.0340733468582631,-2.9712400231557812e-05,0.13607817028542585,-0.037379175600759006,0.05989008327899881,0.004188086052821039,0.1231685276555087,-0.021276750729270058,0.04642220933428605,0.004061918343954512
129,0.04790019983908384,0.06729859299625786,0.0377847289246985,8.355946691720008e-05,0.13909204099225933,-0.03789462732370718,0.06313205556734822,0.004198602801328245,0.11932707103433272,-0.021276351837432844,0.042062968692629064,-0.0003107830039399554
130,0.04984201556456485,0.0663943297978255,0.03724972575172538,-0.00012638097947604296,0.13839284294003235,-0.03788203397624243,0.06502742493109512,0.004203872464444991,0.11904352159303967,-0.021275614252448206,0.04292985722230407,-0.00013771990056680848
131,0.05365764328961631,0.06264457803849938,0.03728629575843366,0.0042802616237191836,0.14210991838898596,-0.03754163292325735,0.06770235159498442,0.0042858859072778905,0.11452795786511251,-0.021289301750475005,0.04093045529764117,0.0015843883002366686
132,0.058195180470707174,0.053747837649067494,0.037648485994310865,0.0040545277408344385,0.15130730979222468,-0.04149793579573834,0.06677272339386198,0.0034351937184528302,0.11513045040223921,-0.021192970898231342,0.035403858897041056,0.005105394252762846
133,0.05789419879829527,0.053653945052423,0.03425939821379205,0.004248267093913292,0.1560110781721163,-0.046249300067297223,0.07095147171056694,-0.000470964439140604,0.11404421038174051,-0.021713920422985974,0.03374758839006591,0.001313160430383577
134,0.05909046494209742,0.04858360544200065,0.02918193117370442,0.0037811767107833174,0.15979329158933,-0.04603637730579663,0.07146624236258932,0.00023132439603428,0.10609177997573142,-0.018803885694233587,0.03434410567655781,-0.000299973205888879
135,0.06268064981508911,0.043885074363680915,0.028987022838170198,0.006255181523131306,0.16091635628501816,-0.04727335145311177,0.06668390802331368,-0.0005050285067165224,0.10160917497266082,-0.01927372291469259,0.030232768986753544,0.00027161965338657256
136,0.062134484006417495,0.041039085010468,0.024717558636684112,0.00821364551629039,0.1643378529132235,-0.04973562691761036,0.06274954774326526,0.0030985230388440753,0.1003521540481791,-0.021500128916015805,0.0254764961224108,-0.0042712022978778075
137,0.06224110515314459,0.04201791378387177,0.024127565221520396,0.011250011768086538,0.16372854939610293,-0.04406074586557263,0.06302768846252668,0.004020851459112622,0.08729217383189275,-0.02160412862565461,0.025705840561180963,-0.004260697446333554
138,0.06232714624743723,0.03846848664793355,0.02027484513798916,0.012629392879620146,0.16399676447735986,-0.03959989556633143,0.06342451963866254,0.008094643866433188,0.08090016448967442,-0.017233310872251044,0.02460391394720332,-0.0036342048351090915
139,0.06195891800639718,0.03717448917105869,0.020834388522700545,0.012428238479381085,0.16352709773194468,-0.03501739207512272,0.060435304365010045,0.00836419244667363,0.08082444439345238,-0.016970973082895337,0.02082566956298031,0.0019600166603889815
140,0.06595072159149559,0.037362990478865404,0.02086923126067139,0.012447159581703709,0.1677648550328735,-0.0298737597620938,0.05887015000034904,0.008916081352037556,0.07543699409708442,-0.012463831148094547,0.02139259282273363,0.004269562085109809
141,0.07059782128695104,0.037344491213771196,0.020201923221704554,0.012447569193526473,0.16796217502698185,-0.02951185660190864,0.05561291205598678,0.012777411469681326,0.0594622072862825,-0.01289844819419365,0.021252281705203793,0.006329098278490831
142,0.07516928386668362,0.037364808916007734,0.02457961037572273,0.012462443709126867,0.16357803803291127,-0.025066815994412985,0.05054581697234509,0.013956567192745847,0.04384417917557563,-0.012644554537686144,0.021272832893472773,0.011956584908825944
143,0.07996829269791862,0.0371817520090061,0.021072265730355994,0.01236623696623205,0.16407231128980795,-0.020324205404389718,0.05044729279592644,0.017257189609972336,0.04295828342078245,-0.0131801819844016,0.021304012425264637,0.012873028675237541
144,0.08317026972592015,0.038407900980540595,0.020769131350271957,0.012835949042508692,0.16306047947807256,-0.016522307382505947,0.05040278894035242,0.01673679543115814,0.03987464330386224,-0.01030383179607879,0.021217684581054868,0.012758119511765947
145,0.08368744529861603,0.04328538104361215,0.020713622108802447,0.01009918605999587,0.1550859832349282,-0.016641893979421823,0.05042614157061609,0.016711813541156577,0.03888986787985042,-0.008241895577480417,0.0212143593439273,0.01276377571908457
146,0.07828441858306973,0.048435784785028455,0.020812801696825013,0.00798838298344723,0.15014911362700123,-0.018465432020023057,0.05041851235655197,0.01712898298848816,0.03143116020562354,-0.008459698991336482,0.01685285087972812,0.012767316286038619
147,0.074506936902312,0.04927233966201802,0.020438733260902276,0.008380726090000805,0.1318412722794588,-0.023598339221829488,0.05042057661659986,0.012756591483142968,0.029540279543678875,-0.008749035579023472,0.016265831796235645,0.012765108688309703
148,0.07150718139329065,0.055944480883628654,0.02260226832151616,0.008222892821797808,0.11895270043319726,-0.028138258440275316,0.05042003754910459,0.01264892615771245,0.029795557553244662,-0.004264051505278416,0.01218336392157046,0.012768159866966913
149,0.0704115692800015,0.06204411159510225,0.025579954420641475,0.008335939479445388,0.10575186095026054,-0.032949012281952156,0.05042033690871524,0.012539688471746817,0.02508155274865498,-0.004318304423917917,0.013329509442646648,0.012756801844172895
150,0.06672614686850434,0.062249658772657625,0.02228548975356982,0.003943490137366975,0.09618236121648244,-0.03738656034553578,0.05041982088296982,0.012875287446762822,0.020092593233101152,-0.0042277034141868265,0.010119485284341282,0.012800994046884607
151,0.04888897343236896,0.06224646460395619,0.017010085428394058,0.0042421975860200386,0.08083831094561222,-0.04655303745468784,0.050419962097043934,0.010977333749012363,0.017491038100513938,-0.004264426163354254,0.008674246949995596,0.012652447686580623
152,0.0455857811496882,0.062237930614595496,0.01673721140164789,0.004138084832886706,0.06628683374155112,-0.05062113252132423,0.05042883780080227,0.007879299580170036,0.012080300520873607,-0.004250988241203472,0.005027480793197457,0.013026810188612244
153,0.03717577755398385,0.06224023004522985,0.012375812583952836,0.004060125013642894,0.05359041730526807,-0.05011428588263129,0.050354557113196814,0.008939938998694002,0.0011555403660701894,-0.004264412698094946,0.004175730093972379,0.008496612299868896
154,0.020505928971689475,0.06224753843510356,0.012535676872674364,0.004574024518204826,0.03429314731063769,-0.05197332316865978,0.05078181193614967,0.0050794917943189416,-0.002969448879542511,-0.004222388348238004,0.004255488393548468,0.008186260020369904
155,0.013171862503047967,0.06220903005966096,0.0123612274504994,0.0014468737520564735,0.02635958520281418,-0.05503261078762284,0.04824513301466102,0.00407129412545605,-0.004264904519287887,-0.004365355699082898,0.0041464354816489355,0.0037591876113808238
156,0.00011966310220718726,0.06236681383201359,0.012763268498716479,-0.00023486464387785923,0.014675079457748484,-0.05456172350273017,0.04635329651433417,0.00421644484776391,-0.007482714970440579,-0.003966151749801243,0.00516768684710341,0.004717521290219124
157,-0.007295406413851046,0.061795744140855306,0.010585460448389558,3.438241347950114e-05,0.004903727785544688,-0.05452505994014939,0.04296669124257712,0.004578762388058822,-0.01683720926009287,-0.008424215778491763,0.008646839815880504,0.0022041776787210454
158,-0.014782695444419474,0.06587048664248991,0.0076083117684490175,-1.0497266854012078e-06,0.004312412038340796,-0.054941745488536614,0.0421837087740082,0.008214353910185651,-0.021847636088660135,-0.008460594997638295,0.010311102298195974,-0.0003563405458030024
159,-0.024649854411946035,0.06632582874024816,0.010946413451131934,7.877127891598264e-06,-0.004823648855008561,-0.05056307467881666,0.03791042519797619,0.0023518497293825683,-0.030441235227896365,-0.008547787178164769,0.013148416685721281,6.0206420057033034e-05
160,-0.024992490977299178,0.0707423679641094,0.016100293898367646,-0.00010048341889154834,-0.008423672134546992,-0.050443485271667296,0.03785358353526088,-0.0002647331488649583,-0.029568838893038164,-0.00842970533773752,0.012800773994756428,1.5021721448522034e-05
161,-0.028906887570189086,0.0749217530020164,0.016636498518976403,0.0007340655573377277,-0.009286858688110198,-0.050589536760207485,0.03796940530115777,-5.03589706297063e-05,-0.029848188566740923,-0.00887769899802112,0.012402431693437108,-3.5370235205036175e-05
162,-0.02434121711457516,0.07443270678975207,0.01658537812512927,0.0061798830304145924,-0.014462496972255682,-0.0490895754673806,0.03657326603349984,0.00042814603741402773,-0.02977217743907453,-0.006331416575815836,0.01669868453853381,-0.00021223241102154083
163,-0.025222550084755126,0.07585844602067719,0.016934676258352568,0.008197437084472374,-0.01904715925516546,-0.04737515199034985,0.03316545548194424,-0.0034679348294058407,-0.029790487243885253,-0.003909153872466851,0.017012517490741657,-0.004451443094931612
164,-0.02364812297795423,0.08076859114114174,0.0219891947548202,0.010766377452125669,-0.02359778306559579,-0.05095289085327998,0.03372552057402292,-0.004293452253087258,-0.029786872871305936,-0.00431432290795923,0.01714149884254415,-0.005236508049240104
165,-0.015987322694264686,0.08565890841865183,0.02557040177265525,0.01272953354511754,-0.02882162954521099,-0.05028221304530395,0.03356105825420275,-0.004225402825675589,-0.02978652768223403,-0.004268560160540601,0.01618126620305841,-0.00927472810493096
166,-0.009018353659131569,0.0874539943782798,0.022757294792583704,0.012401532701121095,-0.029229221818622125,-0.05052128486203533,0.033712920222747,-0.0036901188086542343,-0.029788514011087557,-0.004218373394146196,0.012313405356985144,-0.006524011330743627
167,-0.008196878277053968,0.08682833260472894,0.020845753179179485,0.012453072615436898,-0.033573554227579405,-0.050203203039884875,0.0334340926058092,-4.308919066462136e-06,-0.02979226838115536,-0.004107110055080578,0.012885138445351234,-0.0010599769941848675
168,-0.008311662023120238,0.09069367108941147,0.01779960689498174,0.012448394914647934,-0.03352845412259693,-0.05443364436025809,0.037920409348681725,0.0025492063255825926,-0.0297213050522995,0.0003075407527420726,0.01273821040181239,0.00013423717892245676
169,-0.008298646241533356,0.09543084011103345,0.016419266460490512,0.012449279855833162,-0.033833026593002656,-0.05890588117960317,0.03769295836511692,0.010901297190961584,-0.030222214558826555,-4.3301381163290124e-05,0.01277110279855759,2.8934655243231084e-05
170,-0.008298139617106334,0.09572335183065153,0.01661588339027568,0.012437148286542138,-0.03234006827675815,-0.059290490698893174,0.038099930236233856,0.01536025560449971,-0.027061914247985226,-0.0003361787079746748,0.012766951948767147,1.569186494394129e-05
171,-0.008299021786503281,0.0998276207855233,0.016599185198196892,0.012509041430335235,-0.028995308024269945,-0.06434512638893375,0.03620205223299568,0.017026374302898533,-0.018647216123319942,0.0021528578528649334,0.0127615028855569,0.004934373101714199
172,-0.00829869839032128,0.10043124066542235,0.016593646784787378,0.012161429053667046,-0.02940603059158569,-0.06931880778063651,0.03320255540635824,0.016795457339962686,-0.01481996349944464,0.00413762323087237,0.012765173753626688,0.008793185840506637
173,-0.008298634589347646,0.10558783198843266,0.01661426142895314,0.014381624505372495,-0.029803466686822874,-0.07141429567495265,0.03370310849195067,0.01677429455486336,-0.0076169961460243445,0.007404079780236916,0.012862656904391282,0.00850972199895364
174,-0.008299373109608902,0.11015208183320449,0.01651018163805813,0.019771082369820066,-0.02608864032933552,-0.07380052740189372,0.03359027456428943,0.01662982214485543,0.00672322354542796,0.008333787982467663,0.011954063085239127,0.008117235731533853
175,-0.008296333717392976,0.11426049591130279,0.017001218669633823,0.020919671893594262,-0.02488234060906544,-0.07887840255652427,0.03363386544140868,0.012256909113934737,0.015359308005501393,0.012486198349518224,0.008079100717325751,0.011116031694243694
176,-0.008307029249779581,0.12236213847602866,0.014100629729613684,0.020661018767094544,-0.029429891048165534,-0.08344002602327312,0.03361064761714342,0.012792063831938233,0.04728277136467253,0.012749606990244577,0.008524742645702797,0.013029734632358375
177,-0.008275983953767229,0.12843767482370894,0.012168955560536798,0.02077417178181639,-0.029643128894418884,-0.08818006737163785,0.03325649267878064,0.01220899690825146,0.06287765604838505,0.012763347826430432,0.008932066984402357,0.012726273716260993
178,-0.008329969508588938,0.1285506664218954,0.012517015447879924,0.016384590509484164,-0.034835083117931764,-0.09333427609032212,0.028959379922336832,0.014823158133718584,0.09234218752118793,0.012932463570540498,0.005562565251929007,0.012768796449612296
179,-0.008484109784179239,0.1330052886919867,0.012396114895340905,0.01669363307031132,-0.03843015595665286,-0.10741157131684777,0.029853191660684276,0.017133653409983823,0.09704622883640852,0.011632033608204018,0.0040545704980096305,0.012766790082444975
180,-0.012666299414904677,0.13833804065947625,0.012360608085789116,0.01657174449577945,-0.03592654826945525,-0.11480577036237778,0.02741524064197745,0.016746792251675288,0.11054538911868036,0.0065595731998043805,0.004277257993235042,0.012765468801924822
181,-0.013082327406134067,0.1455411187517933,0.007977803214213201,0.016579601397090547,-0.03195117405877764,-0.12069057164040017,0.024843743431446335,0.01681609949719133,0.13856814927004002,0.0015339042483543297,0.00425545531158197,0.012766129504889622
182,-0.018612165286916733,0.14775187430430511,0.008634222927344865,0.016710242879225887,-0.020714083951356207,-0.13154673063160546,0.025311450838250493,0.016805649808529558,0.16301487102929996,-0.0002842138601576544,0.0043187817076442946,0.0127658746261443
183,-0.020854771575958834,0.15601162823765627,0.006843212420073136,0.016150886103679766,-0.01008844331851792,-0.13448345160915384,0.02510734010069955,0.016784873647826146,0.1765481744752899,0.00017482545568587606,0.003685537992497879,0.012766132525972342
184,-0.022329914669692582,0.16042452618379827,0.003729584580444567,0.01981137777157599,0.00306600154321786,-0.13772761910824463,0.025338268480133163,0.016996886304302763,0.18199238484484503,-0.0003179289506220766,-0.0018278377550513402,0.012765325996509922
185,-0.03119458934062666,0.16183351894644815,0.004248649203386669,0.020874075014104224,0.01713250803260618,-0.13884159248257233,0.02088511124071019,0.015540140208504777,0.19994108724952733,0.004255214698816238,-0.00415692864138389,0.012767990603590292
186,-0.033628248561864,0.16466473377537605,0.004116027452708757,0.020739863605889426,0.032841811043271656,-0.13864730355696606,0.020621062909465946,0.012161305961204134,0.20933090695411863,-0.00029441994812328255,-0.006712427300520528,0.012761322983797247
187,-0.03286436505312053,0.17362919368856816,0.004195665678246025,0.02075675545591424,0.05817717834754022,-0.1428379537046752,0.01516608319759533,0.01270886119580174,0.21818554131653595,0.000129367114199676,-0.008263161313234964,0.012764225941856404
188,-0.037289851708026935,0.17845168334132847,0.004066588611112822,0.020605967746826246,0.07764331060691693,-0.14497148000735616,0.012285198492987379,0.01258386228366853,0.22311985573985085,-4.130078181141759e-05,-0.012279528068770112,0.012873438546575473
189,-0.028371960927684084,0.17832884470300878,0.003987366128433075,0.021742275238956933,0.10440507708490547,-0.1578972226310467,0.012683085380937974,0.01260847424528216,0.22382188730463976,1.303204586511995e-05,-0.008999392648938096,0.011873899428700874
190,-0.022259795259078948,0.17890550170446287,-0.005199791188536022,0.025435581213353722,0.1354786796584162,-0.16128264363588707,0.012580289753355962,0.012604960057261031,0.22088598906256404,-1.1189923013347558e-05,-0.008502474337618035,0.008052699553281946
191,-0.011157148098604656,0.18527347791604046,-0.008487760936366944,0.024369728626437877,0.1718978388733367,-0.16628191788840868,0.012636740069161663,0.012605339275259734,0.18146774342051183,3.34124228338127e-05,-0.0084038800621775,0.008627702166606964
192,9.296993196254943e-05,0.19355435910187824,-0.00824329105393307,0.027482740624840657,0.2129771165124328,-0.17092145956851162,0.01254349406807373,0.012596210112025807,0.1581009708728921,-0.00011036252146933559,-0.00927621848980153,0.00848446382248979
193,0.03382975988460465,0.1947330328010489,-0.008312402655095832,0.02929041294647185,0.23802473527948945,-0.17548259749564488,0.01253374013087955,0.01267010569813018,0.11091538095687997,0.00029060592388856655,-0.013235214408477629,0.008515521139355602
194,0.04156786734467026,0.19803621001470198,-0.008297823373735644,0.029044714990590838,0.2796143019538714,-0.18047129519831284,0.008230233678467064,0.012249404541544823,-0.12668356384315818,-0.004166731402979015,-0.012541525543460596,0.008510328583273387
195,0.10627510943733462,0.19865966501033389,-0.008291114941339653,0.028968774234010296,0.3277013417754151,-0.18069124370686876,0.007570120221667384,0.014727016847870825,-0.19825579246879527,-0.00420810899577332,-0.013240852994522179,0.008510071746884586
196,0.16247341467630166,0.20647772825481653,-0.00832345999528491,0.03342423429919872,0.39030562436481225,-0.18558860876161679,0.0036234383523400184,0.016715334890236237,-0.26506311085880857,-0.004268791412424582,-0.009860077298967724,0.008506825898342766
197,0.19811867479146988,0.21149395177177385,-0.008251993603007279,0.041887515998826876,0.44606580371861526,-0.18915178090427726,0.004747709565915501,0.01986516764701717,-0.34629219110987586,-0.0043190955182530084,-0.008299532065168253,0.008553940837266832
198,0.25146346219211896,0.2205446151843635,-0.008200573697625623,0.04198180222444626,0.4791928794319019,-0.19034136094347695,0.0014722193380549684,0.02116734095476879,-0.3292926150945966,-0.003893876415970978,-0.008538485056312242,0.008236564154121363
199,0.2843281492608332,0.22406854528107045,-0.003855520814737783,0.0473570047149309,0.53029315420636,-0.19385045010542995,-0.0002004242653257537,0.02099778345131887,-0.15237802557091307,-0.006428103469632705,-0.008509962480180048,0.010215613534595708
200,0.37187296965454475,0.22514735633058763,-0.004260064834245473,0.05112279443459136,0.5670935946204936,-0.19269959126848216,-4.60852553029916e-05,0.021015136116684343,-0.29746928371737624,-0.008862626513006575,-0.008509506102231631,0.013290876193296391
201,0.4751998355504304,0.2285065169438721,-0.004110483706947923,0.05924438259643845,0.5387250852452172,-0.19641163657216598,5.432125879633156e-05,0.02089108037493223,-0.6568379849643967,-0.008434227653642462,-0.008511156212736378,0.012225946696523795
202,0.5384832055301877,0.22885690793481422,-0.0041888734112652875,0.061968923891474764,0.6161083233647936,-0.19739054528746375,-0.0044207989817851125,0.02188182289363457,-0.6849661130695764,-0.008546424988065498,-0.008510473081939599,0.016224383867394526
203,0.6111807725237146,0.22330504009685942,-0.004019570692315771,0.0686338771703045,0.5885234323107613,-0.2012092330635526,-0.004098896185076358,0.027004523745728315,-0.6233391510486933,-0.008468938855759113,-0.008510682335145927,0.017110063839164413
204,0.6900429316197664,0.21663086161312062,-0.004610410405123796,0.07427293751844233,0.5494010133891485,-0.20591810180763218,-0.004235596957790805,0.03157176467896429,-0.5948674613696721,-0.008355042747584734,-0.008510630520440337,0.01702317762694393
205,0.7218969655735068,0.212318750709961,-0.0005343232901141727,0.07882756062368132,0.49377376795785366,-0.20619930652854257,-0.004185519329868815,0.03628570558477713,-0.5620348530633408,-0.004075840314642405,-0.008510629300737893,0.01701007361986979
206,0.799687756302673,0.20782560033258637,-0.00011271937238471058,0.07909407898761944,0.4375463811052599,-0.21123817956131166,-0.00423583976841154,0.04096780373510273,-0.49147026918533976,-0.0033801260941296062,-0.008510675231516907,0.017070102176771886
207,0.8729725668612923,0.19872670131209344,0.004247222271713686,0.08338118435600654,0.3926508191449371,-0.21594757821758384,-0.004083645946467185,0.04564963506271154,-0.5184729508282507,0.0004914741752088604,-0.008510543971226393,0.016760605756042976
208,0.9019708841742496,0.19068891981587974,0.004055465873023692,0.08284709219434776,0.330048117468772,-0.21937346727113535,-0.004550890446903415,0.05034194996446185,-0.45070976665409024,-0.0001246057393417077,-0.008510700062673994,0.018710511832868662
209,0.9332586453648,0.18908219781956057,0.004242560471808999,0.08309931822937089,0.26435436012830565,-0.21532901394066695,-0.00019885594020000287,0.05508108746491368,-0.3177738739131067,2.616811744519878e-05,-0.008511990794481847,0.023942763157947196
210,0.9133892967160028,0.18225599693040911,0.0038109113535494256,0.08264213939207492,0.23518841901822946,-0.21736103218864852,-3.309566080416452e-05,0.05917467906968918,-0.2922636222318207,2.7923785203378117e-06,-0.008498532562053138,0.02840650813983982
211,0.8574082083245904,0.17907938748473193,0.006130116956348676,0.08537100292178003,0.17275977688865213,-0.21571084024728224,1.3065616679979676e-05,0.0584035615966638,-0.2508897460892286,-2.5020878282318266e-05,-0.008582474599993626,0.03377784109837697
212,0.7818241726061788,0.17226064994591858,0.008689485275906336,0.09029789885699686,0.14247834646125873,-0.20632525999755222,6.241948613266543e-05,0.06080149591023903,-0.2243132990757325,5.2986356289632004e-05,-0.00815673482337404,0.03382222152344152
213,0.7336215690307156,0.1615308973352633,0.008112193709179046,0.0947499724542255,0.07948014972429765,-0.20148463316980147,-0.0003636781088756357,0.06281163288932731,-0.17792419437792448,6.280807054652455e-05,-0.010693232107129021,0.04283690974654195
214,0.678987057283728,0.15394551050441266,0.008653983335787981,0.09949687385657388,0.06540406359314185,-0.19724639252755327,0.0022454609965394537,0.06646108938896639,-0.15009073770757592,0.004531643145708013,-0.013540878929766543,0.04299243979595504
215,0.5385594220265013,0.15002892980483795,0.004359501786089426,0.09956647764016494,0.03745226675917372,-0.1972600419024068,0.0045207223180672405,0.06357461539644518,-0.12195702635542342,0.004151018594670113,-0.009375831800215374,0.04739144277237899
216,0.4646702052873125,0.1410712726059394,0.00416633585231597,0.09945212096662848,0.009775042093244661,-0.18847382824096628,0.004145937005120937,0.06686916820169028,-0.10054884944925273,0.004265648299768168,-0.008327957352956246,0.04629697001198123
217,0.3566550716580966,0.1322293025124891,0.004262941830650285,0.10062481627340747,-0.01875420737545882,-0.17778656384256708,0.004208397982257358,0.06724682289019607,-0.09262553513628728,0.004352169983903558,-0.008577259203026025,0.0491345714011963
218,0.3005376962558281,0.12724105490590176,0.0031563058983770514,0.1041095994520442,-0.03939497120321904,-0.174009801194254,0.004201767683026007,0.07216503946299857,-0.0778018569272182,0.003815441903432361,-0.0040592704367163725,0.05150336314937061
219,0.2416878101420446,0.11746654627889748,-0.00014108831753948645,0.103953101448337,-0.06140900368149767,-0.1694714510216735,0.004201313195746679,0.07591820579710673,-0.06348328855150157,0.007192095927957108,-0.004351419179836093,0.05058777091055919
220,0.1915861821983668,0.10896715554387998,-0.0017703576955925152,0.1015185698241914,-0.07163248111744738,-0.1613306992183524,0.004201831946612667,0.07554294536267946,-0.08643031219529336,0.008824080910539803,-0.0042239304792413765,0.055053480341645665
221,0.1319943476728053,0.09676026935217807,-0.004979047472324463,0.09663943249734576,-0.0988608916753275,-0.15143573911340172,0.0042016270318862336,0.0756600841038908,-0.042732897117481926,0.008214841136184339,-0.004263925989978261,0.05534210222681823
222,0.08352358619606219,0.08791722807359877,-0.001013542728291067,0.09187175137786009,-0.10628045239675286,-0.15104880462880674,0.004201733124514812,0.07559273918772581,-0.03403581096343777,0.012757508649564217,-0.004253229112533204,0.059780646284208254
223,0.06322887220988468,0.08462247866148763,0.0001455046476874335,0.09107453145464862,-0.11851413518579589,-0.14104306718087575,0.004201510723335352,0.07574755071434089,-0.024595884185509023,0.013116186415916224,-0.004255780718664301,0.06018053690545248
224,0.0299401381582692,0.07557608605137853,-1.3782976504710586e-05,0.09552763195367309,-0.12676694187125817,-0.133285908381041,0.004202269209814098,0.07529362383757846,-0.021262313244127154,0.016678255685640762,-0.004255195006234911,0.06550181646575455
225,0.00073767230791678,0.07091303109079745,-1.7422790503702216e-06,0.09504298318752408,-0.12817008658335266,-0.12674644587075137,0.004200061496166723,0.07966131441423953,-0.0205862139062076,0.012189655723058359,-0.0042554388026242755,0.07013058173167797
226,-0.01293600083338243,0.0577431929254272,1.4259212497368722e-06,0.08997089921037248,-0.13105400456702537,-0.12056547746405206,0.004203556747100747,0.07980745011001082,-0.013412186447454184,0.012913010660579375,-0.004255213800152333,0.07476727083025016
227,-0.023388221409598384,0.05731702564820505,-5.013059157884274e-07,0.08713602990995963,-0.12655166859957248,-0.10685657321718064,0.004218848111087267,0.07970615372962328,-0.005503640117937838,0.012768591116998384,-0.004254057188694622,0.08010060097893607
228,-0.04833958625760905,0.04802104814672298,2.915332727066868e-08,0.085263101757554,-0.12619468955933918,-0.09731863052740189,0.0040257042142190416,0.0808986754560347,-0.0040640846418903325,0.012618675479751127,-0.004267545122416661,0.08064300067244946
229,-0.06516562551324459,0.04431321840854791,5.275851439066846e-07,0.08290934565329595,-0.12179573645994671,-0.08973578613305068,0.005419462549050753,0.08446260841274324,-0.00433966508724141,0.013286757878864935,-0.004180862547977903,0.08495171378560108
230,-0.06811748262508258,0.0389693248558718,-2.2943482303264813e-06,0.08060449795905653,-0.12117474220869315,-0.08005958989744806,0.008848834417364655,0.08403489225758394,-0.004113916191191202,0.008680321452279002,-0.004627697001518105,0.08501557660464697
231,-0.07300227557898731,0.037543014496565406,8.238445974015697e-06,0.07518683926108687,-0.11091189787073545,-0.07546042016384494,0.008299087009729455,0.08361538635383506,-0.008257906353560248,0.012650480543810683,-0.002013270067557858,0.08564935980967735
232,-0.0779373526870055,0.03426310542669476,-2.4318993642224226e-05,0.07474480212333086,-0.10279825025529095,-0.06930234323731006,0.00842452958245488,0.08727992125392091,-0.01734660683699481,0.012705041181693206,0.0003377761292044137,0.09075491617367067
233,-0.07896444613575274,0.033271653563765734,4.341302670282887e-05,0.07055767553183714,-0.10102797655321269,-0.056683513567132526,0.008399749618219484,0.08844222647951323,-0.01670846145656502,0.01279872931466797,-6.862847940524163e-05,0.0953405548783181
234,-0.07883497347754152,0.029507255703736246,0.00011737206834502961,0.06165618782868827,-0.09815539225994098,-0.05308607562953428,0.008403981370424389,0.08816490568777305,-0.018104149269424583,0.01275005792952359,2.479984694431945e-05,0.10040497073642855
235,-0.07885150154034054,0.0248661244275772,0.00444932153376597,0.05675225798177744,-0.09683237625903456,-0.04825271124129235,0.008403892725289,0.0924367654513896,-0.022129558119404393,0.012795170380078104,-1.8038762706876882e-05,0.10284553858703693
236,-0.07850203335067116,0.02464004405136061,0.004057008892950675,0.04681091753729727,-0.0929501923004162,-0.04309036112423202,0.00839386349507948,0.08699249550154561,-0.018788357907187067,0.012648970897899786,-0.00016775917200162794,0.09858314192039566
237,-0.07368459465174736,0.01950961560822485,0.004085322462285953,0.03932134042442896,-0.09253459696459715,-0.04212891591701128,0.008469651832827104,0.08398731310381001,-0.017523139922785026,0.013227249302698765,-0.005250154175757728,0.09790358458155728
238,-0.06879627170232605,0.016197101767035243,0.00458099496232499,0.03557422195555595,-0.08813315855561564,-0.03856008098412974,0.008050779768639282,0.08254028943306221,-0.010953066367246153,0.0095347228639968,-0.008832746065492506,0.09352623391834626
239,-0.0665111822477647,0.017065132008398567,0.0014783148425868394,0.027996720611352607,-0.08770909628885455,-0.03363800833775397,0.010562061307434778,0.07772621883422068,-0.004849619414404384,0.008387569596058108,-0.008422854429795193,0.08450205621982533
240,-0.06377151127008895,0.014248853584448903,0.00016604396888387357,0.01902114955959716,-0.08384492474144746,-0.033364871483881425,0.012938225676858326,0.07034309356606776,-0.0001545037328107594,0.008484623955303241,-0.008524259162534124,0.07826236698236944
241,-0.0632405048941462,0.012065311970419457,-0.0035075585827407905,0.00587655408881183,-0.08248200273937129,-0.029035955164101523,0.012546842023119118,0.06030815247818427,-2.7775797385139025e-05,0.00837037139398011,-0.008538778734189673,0.06447178620105064
242,-0.052312744991688004,0.012778133680420379,-0.004205387669498132,-0.003941858040881296,-0.07973081621298615,-0.02945486512772056,0.01260767819793108,0.054928127210086705,1.0159698323666993e-05,0.0039384834462268484,-0.008398571872857547,0.05528330593009295
243,-0.04940775424443679,0.00896189712959336,-0.004155142973017524,-0.008556632031758625,-0.07752689369659782,-0.029779910165429135,0.012606984510818,0.050312313950305665,5.786902973887028e-05,0.004364712152301786,-0.008818696190187707,0.04822735771012847
244,-0.04984770508267978,0.004171913120132051,-0.004178232625220266,-0.013320919432579844,-0.07256768197677282,-0.02700918771607997,0.012693717910762745,0.04099429947459374,-0.0003393354848633865,0.004246766195971872,-0.0043729216371445785,0.04369253594587041
245,-0.04544930290923483,0.003907525544507589,-0.003913877582666324,-0.016914438900221193,-0.06753728580725561,-0.025222074050440156,0.011798175421596805,0.030488076150956372,0.0020324329626509917,0.004151678055275657,-0.004298704924671433,0.03934076030829156
246,-0.04579047504081482,-0.0002519912045326584,-0.005627496271489278,-0.01657252627715748,-0.06728650390516665,-0.02228520067010857,0.007946969303589504,0.01871791962855863,0.004626718182877239,0.004710648171667151,-0.004241925360788004,0.030094963133308568
247,-0.045268833038669166,-0.0007133056973670005,-0.008713308078187073,-0.016315746033428793,-0.06280892328764934,-0.017033614815922644,0.008549792575970595,0.014799302785045295,0.004180615935285426,0.001156177815514541,-0.004192075237749624,0.025064814803946345
248,-0.04764592950778956,-0.00635205493077868,-0.00823584238878012,-0.018740997305592963,-0.06329902672648488,-0.01680967779593025,0.008254477556036807,0.010936224381417867,0.004267781431712225,-0.0001665402569550401,-0.004617050421543663,0.015841994509775952
249,-0.04802004048529796,-0.008167090531389065,-0.008203173117932894,-0.024100172414914467,-0.061818674985252335,-0.011763853330116838,0.008849200193347229,-0.0006483489699893939,0.004253955504090693,4.517635636097682e-06,-0.002069163444579338,0.011577660487032019
250,-0.04534404590817027,-0.010896766456734966,-0.00863025590529437,-0.025009148250867676,-0.058383795163210954,-0.0026940947968421714,0.0047787254558071725,-0.008333066029612247,0.004255235686731276,-1.519253640229737e-05,0.00034298665167467677,0.006746634885263122
251,-0.04527911691904453,-0.012712146911853964,-0.00434366976658036,-0.024884517197920418,-0.058929115812639835,-8.522913253698508e-05,0.0041843792723572654,-0.00825767693213304,0.004255570834763477,0.0004223824555829411,-5.692704860491151e-05,0.0016409957994968159
252,-0.049316312240744224,-0.01238519186884476,-0.004178566633737433,-0.024893123853511837,-0.05880123616624272,0.0018863709058503737,0.004325685632290442,-0.012695534686809064,0.0042541868102104925,0.004644523241546626,-1.4496283964745318e-05,-0.0003688041155093032
253,-0.049701776733606234,-0.012489354598080036,-0.004127991836708877,-0.02492895702386846,-0.0588273860409895,0.004155537362812488,0.009371452290066515,-0.01308531197584398,0.004261330680238777,0.0042164891499103276,3.244665321687544e-05,0.0004269238680678811
254,-0.05407439404199,-0.012583551776225891,-0.004152756151713096,-0.02467745367807291,-0.0588233451542349,0.007077930620183746,0.012922680043629644,-0.017248731507078015,0.004227060296635413,0.0038942779534662563,0.0002045768055758339,-0.003909832497926535
255,-0.05372186637966531,-0.01689142969310842,-0.004171340108662112,-0.026257530279293534,-0.058823427943311295,0.008579697865105127,0.01251752886369474,-0.01677268011875055,0.004373838215993003,0.0066523608109769665,0.004440655408488329,-0.004238093147622737
256,-0.0549294263245716,-0.016550037348942916,-0.004039374530651987,-0.02959161007059239,-0.05881782944598006,0.008439282270278568,0.012625923689924715,-0.016409621298965903,0.0038118373620586923,0.008945878231878052,0.0052151126785954845,-0.004696329816033596
257,-0.05844240410139799,-0.016301847190320552,-0.004596659387426129,-0.02847119113165572,-0.05887175271204813,0.008437497175631428,0.01260075306032808,-0.019540629946850886,0.007687966099982544,0.00803876038042905,0.009001827202117965,-0.008915674342492717
258,-0.05837599723431673,-0.018532470075040074,-0.0010574929647026885,-0.0321237025783582,-0.05854423100100901,0.012874360138832117,0.012605640903658408,-0.021239200232483678,0.008674122246545103,0.01247684124541315,0.008388549952254036,-0.00838189973757546
259,-0.055676348272651534,-0.02111732117489947,0.000142935096214866,-0.03300434000868638,-0.060546005145318625,0.012481979613258299,0.012605270356625438,-0.020976964466546393,0.008494290596839066,0.012755051994036646,0.008538203725609383,-0.008580000636976904
260,-0.05356905974926569,-0.0206725525442564,1.1482481033208434e-06,-0.037000636456129554,-0.06388045773276796,0.012723471042886056,0.012605276053426871,-0.021009374791582987,0.012969012087806535,0.017271435700396603,0.00850326479744404,-0.008345860193629259
261,-0.05425993088192531,-0.020754963536099506,4.500514647883599e-05,-0.0373434766241475,-0.05991358117736084,0.012191850736765975,0.01259678961268118,-0.021004169206672696,0.01284932884408561,0.01687532891037804,0.00851764702967472,-0.009069772417970197
262,-0.0503161758172712,-0.020756604400446337,-0.0006853380996339947,-0.03727425498931809,-0.05891793294515974,0.01509863160718192,0.012666726367342887,-0.021056854401927554,0.011600330696453299,0.017270838351876403,0.008501386610375498,-0.004461025358402279
263,-0.04563238820273815,-0.020749706672947944,-0.003341994107368353,-0.030702225785721862,-0.055182594028744175,0.017058207243113414,0.012266957662135411,-0.02071620343081325,0.007872618098118442,0.015634184298207576,0.008464491381829779,-0.008370419281325352
264,-0.045690669363102225,-0.020497705484417705,-0.0009492593187655373,-0.018452846972242296,-0.05040190537516749,0.016851797835308265,0.014674453238360703,-0.022795540142871714,0.009379757210612566,0.010059813119200619,0.00908473077325784,-0.008667690934682991
265,-0.04562288864782487,-0.015404892053002548,-0.004602665812987631,-0.003688770375551928,-0.050139919236027584,0.01662919740379399,0.0171612212592735,-0.025611002783944768,0.0033028164954063085,0.008259161481215402,0.013198022371777926,-0.013157831198116823
266,-0.045651013317279054,-0.012433481781942713,-0.004469775552117852,0.013498240520901443,-0.04514404666156733,0.021097546717585083,0.016719825322112997,-0.025096535477384406,-0.003908695992722839,0.008592264535982226,0.0126431180894022,-0.012615813446419051
267,-0.04563366661878831,-0.010721330992054275,-0.0010778622170825917,0.025793457258024392,-0.040294509429973285,0.02058926014359431,0.016874586323297035,-0.025327498631190087,-0.004002377755946714,0.008406256150818173,0.012796494006778816,-0.01290282729912995
268,-0.04567702840099233,-0.008197743277429823,0.00015384616797827128,0.05365709158995672,-0.03749252591155426,0.015498348454590858,0.01675287412642957,-0.024979869444293763,-0.008432045924877934,0.008615373824405621,0.012759728968437453,-0.012316155747913227
269,-0.04551435667536867,-0.006061952880336112,-1.3462478209859462e-05,0.09524401982495505,-0.03777491947678273,0.012266219951306136,0.02148927285532889,-0.029445026334653943,-0.00864376265116876,0.004290010153707166,0.012765200016336834,-0.015672129119629043
270,-0.04607653446768812,-0.0006441085597188169,-2.290408466513046e-06,0.1271093508622618,-0.0382370977458492,0.01268603232192888,0.025483897180715392,-0.029424565674251037,-0.006636035893447474,0.009116423979909544,0.01277169422877479,-0.01726906331292571
271,-0.04186930333949017,6.302085375358042e-05,1.6448941859459064e-06,0.19481754051691583,-0.03426655946780142,0.012609150487516166,0.025122056727022873,-0.028734510638387844,0.0055599631633787144,0.007255804733339006,0.012756569103721393,-0.016893073499211417
272,-0.041562716023477386,2.0426277468813155e-05,-5.839566207800807e-07,0.24083105327099766,-0.03355267596018613,0.01252380584627881,0.025235382818144345,-0.023587676218330307,0.003979599725625138,0.0038390797412064057,0.012727322026047308,-0.021382453642235743
273,-0.03722854745416723,0.0002194870671834361,1.3853532914302873e-07,0.3200942549053414,-0.033606828947261615,0.012855144536039885,0.0251961033603792,-0.01907668627364959,0.003926474534655628,0.004358522157944141,0.013282073788914495,-0.03017727636075367
274,-0.03680522400595646,0.004331021272513037,9.934870186946e-08,0.42835350408643813,-0.033616832863219516,0.008765628022562762,0.02524286517643243,-0.014171587735315537,0.0068984337205487516,0.004232437526866746,0.01768377656595461,-0.030351008174856208
275,-0.03301081630551092,0.005082824924687489,-5.633487259297267e-07,0.5201307094158579,-0.03362846507837732,0.004120933231903676,0.025114218652339693,-0.01018071000002124,0.008914338746920637,0.004259750369197354,0.0154402815315097,-0.03561954452470275
276,-0.031695219138877066,0.008753301132287724,2.026144914453434e-06,0.6175777595644321,-0.03352264640265094,0.004262872852401525,0.025383684946192732,0.0012649606520475007,0.008050979993479718,0.0042546366001787956,0.011950580498583635,-0.04094133551549957
277,-0.02899952312092234,0.008289588392064062,-5.8682596556335985e-06,0.7002398485988294,-0.03403108515034958,0.004180874940109316,0.02089812028808373,0.020181643600882457,0.012736771616517296,0.004255364339293459,0.015473817590321704,-0.04072171278738232
278,-0.026612086386011268,0.007879740250771598,9.684388588614124e-06,0.8053024648646181,-0.030991368367258916,0.004200944009386852,0.021093822631292756,0.03476757522696234,0.008360142136940843,0.00425527822055439,0.01739058950215743,-0.034607939643608816
279,-0.02446814196320822,0.011365721788052221,3.505364541146455e-05,0.8973276580194177,-0.02914924770363374,0.004232387709756651,0.020982594195397396,0.0606488953468503,0.008619761093495484,0.004256011961750653,0.01661885408720262,-0.03444494427146078
280,-0.025382341969825417,0.012614774317858034,-0.0004919998082209842,1.0464578975464278,-0.029474026191638074,0.004072191065355846,0.020991076158809546,0.08396758685579084,0.008454941557514408,0.004250666386752351,0.02113540656759067,-0.025999976276673185
281,-0.02078205047884496,0.012418864353031814,-0.004809945148158389,1.1428061568794416,-0.029374004458677293,0.0046573024973968705,0.021122648324120145,0.14347674122923168,0.008612947048079146,0.004279786227483128,0.021393820239735982,-0.011314878653952257
282,-0.02496600950314779,0.01242542235586355,-0.002523112148531856,1.1934305355521961,-0.029230038455991696,0.00046640175901534534,0.020554714325091334,0.19641287362081822,0.008091166628683689,0.004143503131042309,0.025724205923630842,0.017817517356882473
283,-0.02523368057739349,0.012882029170901556,0.0003949561437426016,1.2528174957610063,-0.02490559460262466,8.358093945791054e-05,0.024357663710850637,0.2295874674498289,0.011079625541645065,0.0047118817999132895,0.026473977726023497,0.04627002842436337
284,-0.02948294403885374,0.016989442920317357,-0.00010973609356246125,1.5147974696158135,-0.025133825527414583,-0.004371223690977031,0.025292182270092382,0.30858158271908376,0.013054469326883927,0.00116161608285535,0.029942417512730326,0.08567955154362249
285,-0.028891612921881398,0.01650247096466663,9.754762693137164e-05,1.5965889400894067,-0.026434082504459663,-0.003943925576254858,0.025210490524196962,0.359652693471099,0.012691182343743142,-0.00017362864351568377,0.03170287382935743,0.131274099602385
286,-0.029192269433603042,0.016516297716227025,-0.0002351095082476196,1.345943112116616,-0.03201170047703688,-0.005374394957283139,0.025573513340420254,0.492887500067613,0.012829122369468841,1.7771986329967492e-05,0.034566584357812145,0.18169098793228156
287,-0.02856634367099493,0.01706086383921293,0.0038231512144786773,1.6063421905399624,-0.033859523928956775,-0.008489399390685222,0.029868966234299094,0.5634395395537142,0.012828863358382472,-3.973448529496592e-07,0.03349270039719928,0.2701346600524492
288,-0.032049388895602014,0.013599253852493864,0.00834764733940567,1.7391918661096137,-0.03355985660907175,-0.010450728578612095,0.028970867502560137,0.6578402681252261,0.017177614618814226,3.6439113098896196e-05,0.03779823952943491,0.36445993624628936
289,-0.03301010425287333,0.012625092176553802,0.00880075744742849,1.7846917719812332,-0.03364203968795772,-0.012991022301041962,0.03140535385594604,0.8264817894320289,0.017831327033171394,-0.00027662599052900676,0.03816652132168254,0.46884082957859746
290,-0.03694461792629313,0.00871671708648917,0.01269669297174175,1.8677218272531941,-0.03359190416912261,-0.012455724498846176,0.034055125950937286,0.9603515387789545,0.02144799768585232,0.0016993120078674026,0.04260760883889854,0.5293320880223628
291,-0.037354287894816166,0.008280035806697806,0.013558929882613775,1.898859621613772,-0.03334398220020088,-0.012834573662074671,0.03323707596948284,1.0944125402179805,0.023038436018757425,0.002702632220128017,0.043372808121332304,0.6880308205526855
292,-0.03736047890627894,0.00799883984027821,0.018814538722825663,1.9641840287388255,-0.029190633610618844,-0.008595198759625602,0.036930298848775266,1.2953663476003006,0.025962080141571905,-4.588460562483766e-05,0.05274337863096736,0.7608680384283532
293,-0.037336341754504496,0.003797350637324011,0.023092235291300563,1.914405901274411,-0.028553099167711708,-0.004075641379359018,0.041940885848879964,1.4033766378266506,0.02541154963121772,-0.002859357985583493,0.05665056678806309,0.8642431993168368
294,-0.03735059861880342,0.004263204494321192,0.028411333618902843,1.8196527095699937,-0.023376278354640772,-0.0042222861811985046,0.04214360784515846,1.6439155095160989,0.0256521664594523,-0.004481751918749021,0.06212106507560748,1.008395826183303
295,-0.037324987278283615,0.004118090718129427,0.028603790443248633,1.6943507691250999,-0.01843004879045246,-0.004478852242670855,0.04724344404386984,1.7027168824649785,0.025279343484063344,-0.004210494056120514,0.06362984242119693,1.1751208728683709
296,-0.03742645940036536,0.0041570548999666805,0.03684846353404928,1.5890088444012864,-0.01654753299515003,-0.002399551802096329,0.05079658886757904,1.9092186019615542,0.029769788025028304,-0.004259935721151442,0.06698946383303762,1.2529269484524468
297,-0.03702324339603547,0.004147648363828364,0.04150796481137089,1.4748261188244565,-0.01686517236953168,-0.00014207311506055228,0.0500338236970942,2.0238535129603874,0.02972610123158589,-0.004553332623316432,0.06800604014689454,1.324191374655807
298,-0.040086342234275055,0.004149857266728641,0.04202607931442452,1.2585943950131526,-0.016769331402258454,0.003157169056884122,0.05244035604973732,2.074817149161548,0.029815292350123708,-0.00907717904428578,0.07191230044507803,1.3943474492610148
299,-0.045312965547863085,0.004148886580714967,0.04588247197384589,1.0635818412118003,-0.01681453852145827,0.0011310324759957018,0.05749588677195075,2.152327248366409,0.029773267024017173,-0.0071604897033853325,0.07663903696673942,1.4507369942139456
300,-0.045578483635979515,0.00415006508349308,0.04676558715757384,0.8370457709271427,-0.017382432122251792,-0.00015993783838010815,0.062119914656932285,2.200593016923844,0.029815623029805418,-0.0038364404626396336,0.07692234095686744,1.5486716185446547
301,-0.05007273767886655,0.004152286189124616,0.05200397629094495,0.668671768056901,-0.026812181489643164,1.5915744981081516e-05,0.06685607146692046,2.163976981048775,0.02967421620279881,-0.0043460676685354105,0.0820677401005668,1.555379252097741
302,-0.05416460424295005,0.004112560168070193,0.056340118947378476,0.689746139520718,-0.029315809905027274,0.00022927659556120137,0.07156342857981915,2.09028238060476,0.03022147348247193,-0.00427571436245882,0.08656691989675676,1.5233532631721431
303,-0.0538625232406542,0.004390736672948203,0.061450059948322734,0.9180388705990339,-0.03119927561742138,0.005152492059643853,0.07576376219689832,1.9898311598186194,0.02652771310701914,-0.004116877000310139,0.09173136172879046,1.4740659932874152
304,-0.05396462414939043,0.002674670307039117,0.06226354893740113,0.7615571679902148,-0.03402073543575816,0.009655174800667644,0.07634546845457604,1.8873806278405534,0.025200325782454052,-0.004633364874583048,0.09391074110065414,1.420933550221721
305,-0.053937545548421645,-0.00031550934827489417,0.062371893977137466,0.40407165378846377,-0.0334999885233965,0.014733069641527027,0.08147977483116982,1.7733704891217725,0.029606573222202733,-4.180374725770708e-06,0.09355047591625215,1.342593899174778
306,-0.053937000196132914,-0.00035694371546052186,0.05798174166849302,0.2026906832091461,-0.033727151603586775,0.017086929987360378,0.08654108406841053,1.511792720630689,0.034114644429218986,-0.004417418567645294,0.09365174708195709,1.211356460926432
307,-0.05396448094457914,0.0030087092880986396,0.05787486965361702,0.06254746535966565,-0.03339646204940579,0.016861721021097103,0.08817652183577447,1.2898225860302692,0.03460179157650735,-0.004774602219147367,0.09356693721875435,1.130378058984671
308,-0.05387095625138545,0.004212312281407767,0.05172002684159209,-0.043875179434380115,-0.0378594423085103,0.01642613351894472,0.09104230588755971,1.1133074797345406,0.03875795884226176,-0.008935513425238838,0.09353236787245742,1.0029124584766522
309,-0.05409740354694026,0.004385255004613706,0.04330322108365453,-0.42153288867305244,-0.037712526475856815,0.02063751681073618,0.09630127016877572,0.9648006201264026,0.0381755296237514,-0.008643813390427739,0.08903470100646078,0.8711723349087489
310,-0.04973778205243432,-5.575648764441627e-06,0.04094625182170321,-0.5548062424646392,-0.03806377292929453,0.021011278275438246,0.09665740461223933,0.7983261890653284,0.03829890643983775,-0.006803907947636185,0.08971430264564391,0.7581478890687741
311,-0.045460887808101307,0.004761511020999839,0.026253131012747573,-0.5310420149281757,-0.03640272645084035,0.021023930633350115,0.09687338895532711,0.5495020026814288,0.03841416797604199,-0.001230707638366399,0.08782265113033459,0.6040294904675637
312,-0.04572174236635522,0.009124169296496967,0.02098861366785227,-0.5178897735240685,-0.03318314758540286,0.02101427249788877,0.1020555632548054,0.40193585990884473,0.037866760071565836,0.00030862732378014024,0.08497921193245817,0.49368889793976617
313,-0.045599133461545906,0.01412365439855156,0.010325944981854372,-0.49813593603915396,-0.03370328260212638,0.02093434147125814,0.10502301856582419,0.2792477736853756,0.041983942607609376,-0.00038507765719397063,0.08310897588200453,0.39185737986369
314,-0.04574911796728321,0.01666387178179201,0.004305330442630023,-0.47796849897918764,-0.03362531126937163,0.021375310800305598,0.10704847866746332,0.12593500573823663,0.04259302393417019,0.0041173093668861495,0.0775023177798606,0.31726650984155513
315,-0.04521613445367192,0.01835977891656854,-0.0001116929259980572,-0.43139843458452165,-0.0335226980204875,0.018712671493739903,0.10800015485603659,0.011589796994418668,0.04253256548319621,0.004364535138243413,0.07637278368656865,0.2442080471873236
316,-0.04840732072149693,0.02389904972802324,-0.006683239463674885,-0.407831399356457,-0.03378533437331419,0.014835305782137006,0.09875018521428809,-0.03080691251802503,0.042961738382657974,0.008810161879019484,0.07680816327874156,0.14170144419412173
317,-0.05012199398969551,0.024975737866670015,-0.021817137273777716,-0.377107499992104,-0.029312934745018768,0.0023178532896190184,0.09356221241887737,-0.11047566927818851,0.04801397111098562,0.0086318447275678,0.07227851419966337,0.11119858869737057
318,-0.04946554487447416,0.02507406624696782,-0.023527162712459717,-0.3201545512380112,-0.029484924815122045,-0.0037417496177937068,0.08425846844952666,-0.1526710395879331,0.05265437760460543,0.0070519862603482236,0.07238505765537633,0.06429729558007707
319,-0.05387283115717106,0.020918202443261626,-0.029276305398404593,-0.3079752962310184,-0.02944514765599108,-0.012702953574082361,0.08360855100924917,-0.20998452082689129,0.05720064156823569,0.0038392762813013025,0.0725316309705176,0.022484333569402715
320,-0.054065089765822215,0.01653376136988439,-0.03360389034172921,-0.2740004295252965,-0.02908380874719493,-0.016724774182192644,0.07049973359706237,-0.25050705538481266,0.06361596601515873,0.004235049014348776,0.0709560917376127,-0.001879289001266285
321,-0.05901229369830871,0.016022563874265726,-0.041122923520200666,-0.23512238528873602,-0.031452836868347336,-0.018462422959485518,0.07089958485740638,-0.2605536393751095,0.07791159321214157,0.004678090277059859,0.06754548276723729,-0.02095907668486694
322,-0.06296591527387008,0.012189280834872555,-0.041256810586745234,-0.20676960746702822,-0.034093529723095754,-0.02612004666030812,0.06529818889015823,-0.26480750838602823,0.08112158594587028,0.000690649641738534,0.06858267927341165,-0.04914970630796363
323,-0.07076366934874721,0.011362717178576379,-0.04545110724489549,-0.1945033485688439,-0.03309771373741173,-0.025006007458604033,0.0608191648130916,-0.25747299626683195,0.08438404562747184,-7.603044281906694e-05,0.06523010820099237,-0.05975589463304428
324,-0.084033955256851,0.005770403786549449,-0.045442575117955616,-0.17455453266000442,-0.03734053053720953,-0.025121391304596286,0.0561379973232683,-0.2463596086422319,0.09370831185365129,-7.489731007171587e-06,0.06081432600226028,-0.07809855471872366
325,-0.08900105872302637,0.0039013930012933655,-0.04115257881953083,-0.16314794305838637,-0.03776327628271451,-0.025725400977585734,0.05118067162269664,-0.2368438374995668,0.09339848049610733,0.00010664104557862091,0.051642786074225455,-0.08090167480196774
326,-0.10014561584352198,0.004198837341577173,-0.041867114999034914,-0.14171419524374707,-0.042363817357626586,-0.0214314672165237,0.050108109443630394,-0.21846187697630387,0.09442230811330644,-0.0008027988498883385,0.04664840259046616,-0.08051078761013315
327,-0.11052895824893429,0.004139743682623833,-0.039826683544797015,-0.11957541456417911,-0.046462471060625773,-0.02146523670697221,0.05464511581563042,-0.20873338134883035,0.09903854489350741,-0.005019182934828802,0.032474955221024414,-0.08293702651970561
328,-0.12340401125534636,0.004153396764429505,-0.03734648379388571,-0.11436565351390596,-0.04611571880589445,-0.008099662479172627,0.05458078364441671,-0.19547021338596454,0.1062196117777384,-0.002283910285372698,0.024496636842928802,-0.08534588051398677
329,-0.13712074252717363,0.004156163402437629,-0.034836476005787556,-0.10165795231091058,-0.046344680784393515,-0.004303905696666475,0.05443853705727459,-0.18539386309867137,0.11140955384763539,0.0005166681009557709,0.018734641199994698,-0.08546285272225974
330,-0.13675406385606845,0.004031828408754964,-0.032820172439317466,-0.09736724726751561,-0.04575522405611783,-0.0030575477784043014,0.05599282754498003,-0.17606314579433088,0.11024652315975395,-0.0006489120294290205,0.0086011836034418,-0.08142156712685306
331,-0.14493473820833339,0.005029928920534292,-0.03355027625258532,-0.08403177805356872,-0.049074891352279514,-0.0010505542295840982,0.059581157068494,-0.16684332987870956,0.11344641991072617,0.00385570223372405,-3.487646677178223e-05,-0.08079410837417031
332,-0.16020890942364588,0.008742676137525756,-0.029193173527632163,-0.0782301211615946,-0.05028775817425573,-0.00445697563749747,0.056462538823994976,-0.1563785592464942,0.12249522904838356,0.00047198984848851504,-0.013448129067675226,-0.0806596604091811
333,-0.16484390290410963,0.00819018573682963,-0.029091469188538402,-0.07659917011023815,-0.05400170081443765,-0.006151315036824738,0.05153305082718943,-0.1429357119788733,0.12765303971265968,-9.048604404691008e-06,-0.020718589915816998,-0.07571255490125865
334,-0.17546796734773734,0.008294268084348813,-0.028914993403427677,-0.06757592509244884,-0.05862717164726138,-0.011909282465919867,0.04689338714463345,-0.13673866473647966,0.12787208849897666,-0.00016981877294015068,-0.025098072325413535,-0.07102318367084084
335,-0.18089271710745058,0.008411118189849506,-0.02984121781120809,-0.06244583307423046,-0.06752746284978148,-0.012366901763170105,0.04214913785428301,-0.12914541913778213,0.13294564148882654,-0.0061023098500627435,-0.029854557860746176,-0.06636813330995994
336,-0.18940410835359406,0.007920166302595916,-0.035168433152513175,-0.057885271055143905,-0.06761393476462736,-0.016604657694332104,0.03726851162668087,-0.12281528218316382,0.13721503096707557,-0.013547421310389794,-0.0341500513133579,-0.06103961807986801
337,-0.1911480949926573,0.012091654461272739,-0.03776087289261525,-0.053292185013226405,-0.07284069280425275,-0.016812381468772144,0.027605672578866668,-0.1179988144702463,0.14390824665406432,-0.012546596548908611,-0.03480658495719297,-0.059783532163659586
338,-0.19083544361253746,0.012453855624429688,-0.036829898591610864,-0.04877067407685125,-0.07766957515166421,-0.01627233022311876,0.018490627892144937,-0.11769014565868682,0.15198692156708754,-0.012850786165191072,-0.03877955774917376,-0.056144850575486696
339,-0.20005282935831312,0.012463697766197998,-0.04051057373221741,-0.04374229127008099,-0.08022085095993331,-0.012433403887711447,0.008090948607596227,-0.11305407820084022,0.15326406104702026,-0.012624616334343036,-0.038171968877107866,-0.05522999463636495
340,-0.20928761694180933,0.012441119546541634,-0.041629764321447146,-0.04164235243936285,-0.07951833972934269,-0.011133689625410257,0.0043979533451675955,-0.10829144482115963,0.15349448551755626,-0.013207716100245808,-0.038325492677861873,-0.055315961549706714
341,-0.21733227752113846,0.012450386529818527,-0.04148341590988461,-0.03875428962182197,-0.08255257704113483,-0.008277029008507202,-0.0013118960697069038,-0.10469929264744673,0.14962079667854064,-0.008911403811411495,-0.03829864759298494,-0.055324889995706214
342,-0.22196191462489767,0.012447480059042797,-0.041489905516663095,-0.03825254453122645,-0.09150299313856823,-0.006234298957473419,-0.007690850316433232,-0.10506631813762125,0.14484717699159672,-0.008560929012843582,-0.03827730474620824,-0.05531681341140791
343,-0.22389493851063902,0.012448452058580972,-0.04150888961834031,-0.02732673690257241,-0.09663804357390873,-0.0010667094566326754,-0.012437068238598723,-0.10533277333271918,0.14035311352619986,-0.003964491215683816,-0.038346250783032367,-0.05532025215788091
344,-0.22808058217289995,0.012447438321413143,-0.04140687653175118,-0.020893242217408826,-0.09722673229139299,0.0034060783494454273,-0.012689277683802779,-0.10264292728490512,0.13978894515588516,0.0015012748073008403,-0.03831514002376943,-0.055316963064509325
345,-0.2424143639279704,0.012450412150358423,-0.041937859679877454,-0.016488991910522065,-0.10640993379668692,0.008312494842593735,-0.017141223184875647,-0.09712481736968721,0.13634061177580784,0.009293093850344812,-0.04311184260120524,-0.05532738150509355
346,-0.24522644173557595,0.012441802970229171,-0.038969227654390357,-0.007926813746937326,-0.11081787581487336,0.008523093575998812,-0.016666418857206877,-0.09681874045156803,0.14390469857230778,0.008333731311204937,-0.04776024857944813,-0.05529036360304314
347,-0.24465927593800826,0.01245733468095861,-0.03965164075638671,-0.007881437490648596,-0.11351439559280094,0.013267911568995091,-0.016943084909427024,-0.09242135489527822,0.15171460735391643,0.008365226150608274,-0.05251645043729312,-0.05539892750863318
348,-0.24904242068018648,0.012494923020152208,-0.04179354622014016,-0.0023589333555895996,-0.11545781275448176,0.01028113044131046,-0.016339071022520326,-0.09232700336158081,0.15470098911506736,0.009295951213388639,-0.057226512755456115,-0.05522041338088096
349,-0.2494838545121554,0.011872886025623466,-0.04146990117588656,0.0002490938805881297,-0.12044918385152113,0.0036876156620870145,-0.019687180161850996,-0.08610398877269163,0.1673260785706173,0.0025095974814702765,-0.06198314306364331,-0.05981135804642861
350,-0.2531425062005004,0.008123761012425755,-0.041465584084026466,0.0001702239239603419,-0.1255608296157135,0.002264231864272072,-0.0208332441593783,-0.0790831926775957,0.17055030908597762,-0.003945814565783149,-0.06659729250526271,-0.0588180669773556
351,-0.25557440273096843,0.006947104133328803,-0.041313441324069486,-0.0009066591319345286,-0.12588893503740925,-0.000411440814642699,-0.024752293306752486,-0.07992142888628441,0.17030306969641432,-0.004329414272099769,-0.07168974141118475,-0.05482780979956618
352,-0.26437617915627093,0.0036863668400177576,-0.037014039718869816,0.006744793034887998,-0.13029381330131137,0.00015998776334877126,-0.025222630851702288,-0.08024500003425636,0.1657598690504222,-0.004433044988051349,-0.07247130944095043,-0.055817908838446006
353,-0.2653414257956785,0.004285107591151215,-0.0374594082156924,0.008225303448272492,-0.13049834092568813,-0.0002473610370262966,-0.025620915306136836,-0.07674708835358826,0.16062626451479128,-0.008264916847531783,-0.06806078820723324,-0.052925315420802664
354,-0.26830132931022765,0.0040131367382870275,-0.03730641749483134,0.012398174498769534,-0.13571781153166676,0.004024165971137617,-0.02943782990746199,-0.07556061251499102,0.15121026154518766,-0.0039789460167978,-0.05436456392113105,-0.050790047152927814
355,-0.2727658031461386,0.00450751958759725,-0.03737848829928759,0.012661707680900957,-0.139326517838028,0.008700350365553335,-0.03171266445555324,-0.07547520616087408,0.1604836734863393,-0.0028364126167542423,-0.042531710278561695,-0.05101946057133782
356,-0.2814079671689769,0.0002803193213567149,-0.03723890774847553,0.016854376210262124,-0.13649417254741017,0.013535555121523124,-0.04063302716575543,-0.07993355173977952,0.15148322186736785,6.0682645717006936e-05,-0.021833507786979015,-0.05126828722451105
357,-0.28629145384394855,1.4167115905868767e-05,-0.03770466131720267,0.017332863423214342,-0.13454554604165475,0.017146103659299045,-0.0423111350587416,-0.07988285931276559,0.12599279720021708,0.0024537210680817432,-0.009894915544095084,-0.04675174173966423
358,-0.2816763832897447,-0.00014579185900829845,-0.03387018776956958,0.022810283986152032,-0.1314818522827588,0.01673105799737909,-0.04151599011553864,-0.07884854298726206,0.12835715662577304,0.0045588461016034115,0.022369284774169624,-0.04732460034812182
359,-0.27620013602495375,0.0010113874113484606,-0.02935626407413783,0.02537964191071564,-0.12997310258226474,0.016746291171523642,-0.045743932355333805,-0.07516148330799392,0.1244154459402607,0.00420275876615387,0.06173768377305074,-0.05144866371789501
360,-0.2684022045526019,0.003306692188760753,-0.020375111045758797,0.024074427561969505,-0.13045865867461828,0.017125636100057906,-0.04610904070216772,-0.07577698347869771,0.11931428023945802,0.004264603864806893,0.09459450518582155,-0.05095029323145049
361,-0.2605927023278738,-0.0005284907895873511,-0.008727591206455792,0.030768705270644025,-0.12601060378153606,0.01392628349433621,-0.045389717013607625,-0.07547743054341068,0.11911661737271706,0.004259169687409616,0.14271748037904033,-0.051090585471283485
362,-0.24801011437238465,1.5105709866019982e-05,0.016976795592228543,0.03725202681832215,-0.12512696155040345,0.008661530088484259,-0.021870206215293952,-0.0760745772161545,0.11428719598706508,0.00415428453507458,0.19145671184465876,-0.051066024425122876
363,-0.23970302762171555,0.00041855373847344657,0.032090581901009364,0.03710344100556772,-0.1165832924773907,0.008435217328299736,-0.009757956861311206,-0.07185774278224945,0.10960987768536756,0.005052698028503172,0.21302524216885899,-0.05103487479367911
364,-0.22948170538548868,-0.003302618488423012,0.05579779696805398,0.045908455819721805,-0.118911291184872,0.0037782669293780526,-0.0016324002073039912,-0.07146509144302446,0.10521821125373063,0.009275308187519241,0.35028807843932336,-0.05114709508880524
365,-0.22554042522798295,-0.004241178332388881,0.06603431635346041,0.045327814855268024,-0.11143127788599513,-0.0010005652711989768,0.02987142114030058,-0.06677898128768088,0.09837360976536699,0.006537966946408458,0.42572262190843385,-0.05096202561227168
366,-0.20380280673294607,-0.004161915277066113,0.09075245315855918,0.04673837674800082,-0.10261464807173266,-0.004426601515953867,0.055104138295614,-0.06276801127791908,0.09063495554322014,0.0037593117654391027,0.5263420275553513,-0.055519023414877126
367,-0.19487460677777477,-0.0043841106285382805,0.12676765389989328,0.04987153827858539,-0.09159813035368879,-0.004758873415238908,0.10810135189890384,-0.06311054499428989,0.08864817532603934,0.004825649918433637,0.6252258640861268,-0.05500333557748194
368,-0.1883864706290378,-0.008645217497913771,0.1728115087416101,0.05174369512691586,-0.08435183428232537,-5.531056263795265e-05,0.15463898995373743,-0.06299707275104442,0.09118123432165574,0.0006576140017076734,0.7249479388830181,-0.056837098067562014
369,-0.17054238000756913,-0.008183467579433744,0.19653987101797188,0.054010025812998824,-0.08013848301435002,0.007794554196762316,0.16927700706074247,-0.06305326900370545,0.07034706432956174,0.00022556843387565393,0.838902294386176,-0.058248935322565205
370,-0.16497381027838845,-0.00833094487010265,0.22903598276508916,0.056420627689810016,-0.07079344026630194,0.008182103414828182,0.2697307897575995,-0.06293791392578657,0.05961957649681135,-0.004253288433148131,0.9280015768260493,-0.05480429442126273
371,-0.15537388132605545,-0.008290905122321165,0.2555145707906251,0.061824328933589884,-0.06220278948041994,0.012036540742062738,0.3408365748187687,-0.06330403445638894,0.0499937430893808,0.00028381460888132683,1.0035824494417094,-0.05545622552407506
372,-0.14680192021185237,-0.00829992180723313,0.27585726907862007,0.062142981533891035,-0.05640335438102807,0.016784510273111237,0.4486738603993789,-0.05942973175024855,0.04225603348657245,-7.994437277941254e-05,1.07531180907187,-0.055197834346554564
373,-0.1369732292678238,-0.008300582624503502,0.31316119326222275,0.06648343118863258,-0.04941498475654062,0.021180351281112064,0.5468122335317833,-0.05461656094612581,0.04087957625612179,-0.0002495720108533012,1.0928410737119976,-0.05554633355482924
374,-0.12194638503307996,-0.008292448991371094,0.33677676622743064,0.07077446389382475,-0.05139253021201346,0.021079700629825178,0.619471359962359,-0.05434692359301707,0.029558933726634363,0.0017350556183930044,1.1494533011212797,-0.051017830424364
375,-0.11294444748983344,-0.008310135960847925,0.3403451579628082,0.07011302794576425,-0.0452227470126968,0.019990721846695786,0.7188856438620232,-0.04958338993312857,0.02507126893628287,0.004675763504557028,1.1857702142561353,-0.05113989452159889
376,-0.09508349773486124,-0.008327547537681612,0.32407689964064523,0.07283262406385684,-0.038575192824269605,0.01479933072344705,0.7963381121655572,-0.05327291930570996,0.025165795006611678,0.004135829823087959,1.2130100703988167,-0.0510340555973308
377,-0.08968180234628044,-0.00783093014365234,0.28789393657220314,0.08163254873507167,-0.034316345268481194,0.010403247377146981,0.9176132767118033,-0.05968576980622392,0.028958681929744216,0.004374939853855056,1.2235875068479805,-0.05107263600919221
378,-0.07099723191569864,-0.0037465668875785504,0.2464919469460895,0.08269725712940237,-0.0294450708328724,0.005100825645597851,0.9830062773690206,-0.058543005564726726,0.029595946355002137,0.00397774246545028,1.2245715654140725,-0.0510616012716447
379,-0.05747345347705183,-0.004262766614298595,0.20410303433518032,0.08592892989616852,-0.029142075678397123,0.004432427324254837,1.0279389022896586,-0.05918259843451752,0.03395886757793825,0.008386144146666306,1.243025015933411,-0.05106432381404013
380,-0.04713990773735794,-0.004146887601720687,0.107928411804957,0.08693727592285715,-0.02519633461281669,0.0003284147931457864,1.061299552826808,-0.055614754462772836,0.03421759712846117,0.008244329556381037,1.2762878543664724,-0.0510637361609846
381,-0.04342034639589923,-0.004038327683538415,-0.042489464007786075,0.09092333072358871,-0.022834002106403184,6.061024075929814e-06,1.0567870019955803,-0.050582259033363344,0.03862528874585349,0.003933270394033326,1.2905778061996995,-0.05106384330749543
382,-0.03873841762935143,-0.0045863973259749795,-0.16338153194688998,0.09126471032511715,-0.0163125888177883,8.592272782611187e-05,0.960838605197788,-0.05044045391515678,0.038457936137724504,0.004364401233114922,1.3105644119826794,-0.051063829144580956
383,-0.033809792834278235,-0.0007530973632105295,-0.2784770450609873,0.09585029065146113,-0.014476963069907263,-0.0008566467945958852,0.8919508340702049,-0.050403713735469514,0.03661699891608086,0.00422293472459925,1.3254099174532308,-0.05106383106308319
384,-0.03310604159631916,9.404272608595104e-05,-0.3605436657510117,0.10054779634330407,-0.013137699392780021,-0.004569765720094095,0.819046852865677,-0.05042614129458514,0.034067730500504365,0.004271143041016166,1.3315924700957513,-0.05106381307252484
385,-0.033197840298897545,-1.2101653594908269e-06,-0.4948936758461834,0.10388377895746098,-0.005922746888704428,-0.004485511961758971,0.7139862765309153,-0.050418449876303985,0.03133072877988989,0.004220857179252729,1.3478595156147815,-0.051063934305937725
386,-0.033527908843189146,-8.806787462440237e-05,-0.6068867083059342,0.10492448388067817,-0.0039356318705351424,-0.0017532469763091771,0.5790571581778873,-0.050420608728846454,0.0299157804323544,0.004370749615817798,1.2988127917904921,-0.05106330706794227
387,-0.03760969697212301,0.0007264288459163453,-0.6918087164280978,0.11047049079658909,-0.004206575336650798,0.0002887045589884036,0.49940157438741667,-0.05042002006041809,0.02623767855684916,0.0039228972121333455,1.2493687537907927,-0.05106609322895447
388,-0.037817797535224865,0.004584427723200182,-0.8101160671707857,0.11232969900993452,0.00023313953338161765,-4.7609574168692406e-05,0.39895057525620353,-0.05042037349132286,0.02534018401529872,0.0083220114039702,1.1245614027203978,-0.05105525914525994
389,-0.03387615445029735,0.0040380018600679815,-0.8516937887379529,0.11178757038395815,-9.616625212130555e-05,4.561264890190619e-06,0.2641295977736279,-0.050419656798682676,0.0299324797497178,0.008471401060948404,0.9935337365912253,-0.05109102059404673
390,-0.02869460401636954,0.0041468597630667965,-0.8638332773322668,0.11260018046243815,9.213989204408339e-06,-3.42539133466571e-07,0.22229875482576575,-0.050420730413860346,0.029125390515339668,0.008656942128989828,0.8631110226738131,-0.05100494737087571
391,-0.026371765768408727,0.004264627969758227,-0.8427606167806124,0.10411593651549512,9.588129428007072e-05,1.5019187510648059e-05,0.14281291743324645,-0.0504256771575871,0.025614087175641273,0.007596083134816325,0.7085714665496697,-0.051013492092777786
392,-0.025031627940033267,0.003736058116533085,-0.8307183242966653,0.09935802894276036,-0.00043616372373357187,-0.0001102867029405948,0.0714655158656289,-0.050364591700990696,0.022706256515784055,0.0034602931313556552,0.5791274114295273,-0.04649417734780618
393,-0.02130491337099458,0.00782360019851398,-0.7910557394921037,0.09520401929848638,0.0029479202348071045,0.0005982344714608017,-0.0068310841139386635,-0.05076142247750401,0.01603083305054224,0.006389435772967248,0.3995162724238085,-0.047133137257140995
394,-0.020673803433878524,0.008309784907827076,-0.7524641618180737,0.0951568353598328,0.004483038975148226,-0.003694253304477097,-0.09679491864871823,-0.048393465091800474,0.017579879998335844,0.008855113643220225,0.2290479840318945,-0.04539040958911522
395,-0.020512849320762555,0.00816895545423279,-0.6993381242463634,0.08697661805038526,0.003973993518319084,-0.011217924889226495,-0.1525112653460181,-0.0477709963320883,0.014277281553038127,0.008449669304935561,0.05190259496417503,-0.041655469964276076
396,-0.016796826903069374,0.003366417628655462,-0.6445355494419678,0.07397963389733007,0.008457741193111807,-0.015885727890999513,-0.19663434074332817,-0.053336723429135945,0.009231218681822322,0.00849438375917605,-0.06698080614889536,-0.045517014958568525
397,-0.021539454168613414,-0.001044054514331174,-0.59431963394142,0.06801695139437047,0.008329572099942359,-0.016754972714258062,-0.23159855393557818,-0.05779759836657352,0.004830432165406497,0.008568133134061554,-0.09536031786082821,-0.04631598226326741
398,-0.01900519805333569,-0.006096702046145956,-0.5271786516304429,0.06312444559143937,0.008432042941240529,-0.01713382813597779,-0.2588206028100239,-0.06263876114398173,-0.004396128420800982,0.008565232136978847,-0.17564148389630654,-0.05386219163773098
399,-0.01663866162142868,-0.008219505451262007,-0.46604438706081314,0.0622758520601484,0.008394828667163592,-0.008222923415936197,-0.29759415335191475,-0.06723933793075852,-0.008544238133318673,0.012936818888480068,-0.29963271921240603,-0.05957815293066631
400,-0.01409099875508519,-0.010757380911178914,-0.3725293499998387,0.058729079870358934,0.008405548953496421,-0.008028209789054682,-0.3459285381160833,-0.0759128731613635,-0.009304437392731155,0.013450849171069134,-0.3390241066445145,-0.060036863134932256
401,-0.012377816159793751,-0.012732086068639082,-0.294461305538253,0.0496752982767839,0.008402866022330466,-0.0038996268856963273,-0.3653376041645835,-0.07687967742545818,-0.013237770015802817,0.017826057364494604,-0.375064653015518,-0.06870223864983421
402,-0.00965652319283228,-0.012400725598765415,-0.23473525800631564,0.04457760843706321,0.008403457347397211,-0.0031593878104856253,-0.35366076691818543,-0.08640913112029583,-0.012643765495439054,0.015005064885363437,-0.37334139273675687,-0.06872165539830631
403,-0.0005463198101133943,-0.012453275688611185,-0.18313210957888512,0.037378312691121025,0.0084033509097703,0.0025044210836022373,-0.3345266740438679,-0.08812206812417202,-0.012785940077033837,0.012434905160665538,-0.3631659953883939,-0.07483141845033829
404,0.004274394688316261,-0.012448328958195948,-0.11775196210417603,0.03270385397244434,0.008403353815151815,0.0045733320574310905,-0.30569183815959655,-0.09026077252179011,-0.012794727912044064,0.012722724569724767,-0.35531796924551434,-0.07604245241656153
405,0.013252100427516055,-0.012449911727712686,-0.093815112081497,0.016246064266638334,0.008403335188484903,0.0037266840675248534,-0.2881038569708676,-0.09565371462272683,-0.012654136661438302,0.013137832026516997,-0.33876471370969485,-0.08219550523888902
406,0.01746878462033929,-0.012432401906474825,-0.06204088498696977,0.0058646663475597,0.008403752448422001,0.007853795658350838,-0.2673957692171905,-0.09931481782759247,-0.013038920773774923,0.00890489340609652,-0.30916938810419214,-0.08832332842736706
407,0.022101576112133495,-0.012535687446980344,-0.03763351342452342,-0.0064179847992477754,0.008400722720574998,0.008443681223504002,-0.24115888584255796,-0.11267414410186076,-0.008528434984943717,0.008497875962193549,-0.2979424340485167,-0.09707333786562136
408,0.027153488758658688,-0.012033525374905844,-0.007488700080808322,-0.010974545962266852,0.00841723935150548,0.008410164765736847,-0.23058929339541764,-0.11776723997872422,-0.00825701356642908,0.008183660954579976,-0.28726472665574926,-0.10215484173260969
409,0.028884139208631924,-0.014899235606453709,0.002481338909036108,-0.023274859138643886,0.008340461818911564,0.008436365501068048,-0.19640408944790386,-0.12241788982494645,-0.0038753152132706328,0.0038864774025337396,-0.2508500239591529,-0.10201937199597248
410,0.0319436548271554,-0.01645142378742112,0.026964942575858197,-0.03716872246173139,0.008655302589484748,0.008151810965475934,-0.16494656353990683,-0.1281051295331391,-0.004249324310898063,0.004373077112471002,-0.2315239697745614,-0.1027314662985563
411,0.033017912220727356,-0.019890656743335004,0.0445731135579265,-0.055739602025911196,0.0075251253756275045,0.009973781165782689,-0.1592788858277702,-0.137071492317895,-0.0048787076736067385,0.00422318178965313,-0.20415039783486527,-0.10918650919530111
412,0.036922648482688385,-0.020789553800503246,0.052764038262537075,-0.07225009567510175,0.015837988842690564,0.013136584056054074,-0.13642437699998441,-0.15135723468965306,-0.00013622153828548342,0.004263666755766554,-0.1902307817031642,-0.11957500109337173
413,0.03735085233906945,-0.020797034680725954,0.05797459316523129,-0.08471505184926105,0.01675787109579362,0.012060297283597603,-0.12780582805933374,-0.16507763135392406,0.007758460278438359,0.004251300226035182,-0.1680490576176641,-0.12581097553277065
414,0.037175991792549976,-0.01640064650483689,0.06262138988269601,-0.11585231618392944,0.021147735138932002,0.01586072373228092,-0.11110013379273787,-0.1773070777056287,0.008557551065606305,0.004263571009371648,-0.15971048292005005,-0.13387800099361863
415,0.032156010942288725,-0.016705180451568342,0.06649290290907867,-0.1339874700847622,0.02141699192555559,0.01692634141243877,-0.09359451322664142,-0.18788680345906603,0.00865485815771808,0.004234013146204329,-0.1353271355640953,-0.14002382058190976
416,0.028930205062678176,-0.01649422349397573,0.06740199688626003,-0.1607822108332905,0.026446166622272935,0.01680696674632033,-0.08335493755770242,-0.20093843321939067,0.004517228427750267,0.004279639909390535,-0.12361451422046711,-0.1443629344276696
417,0.027875195368788196,-0.01696418565056502,0.07100957925358002,-0.17284778569492346,0.031769630549471635,0.016872196651499874,-0.06990533651981899,-0.22369040532226678,-0.004769496767567453,0.004471704014817074,-0.11441588301935667,-0.15864174448080431
418,0.022365813967621516,-0.014464845312121713,0.07042443541134497,-0.19476552582021198,0.03163988996892196,0.016073008394716922,-0.06360448776422864,-0.23382543012799403,-0.008684549197856361,0.008867912010533502,-0.10963484854537053,-0.1713853555950115
419,0.02038242493674686,-0.012118897860805763,0.07056382149811757,-0.21913038830463805,0.029368393174574625,0.012733432483586944,-0.054763189980888624,-0.2511044202023927,-0.008520358314161801,0.00832296442319526,-0.09824916981142771,-0.17697618737903248
420,0.021214036074315493,-0.01247609703021642,0.07053684661949317,-0.242570765883268,0.026509023766476018,0.009282606389729248,-0.04534282248832481,-0.2616261026437693,-0.008160622417090101,0.008901908893300222,-0.08639228713219135,-0.1846268090422455
421,0.017152936303277078,-0.012548010960127075,0.07053442085784083,-0.27687551373820374,0.021549787825227353,0.00376612935911989,-0.03612069714601297,-0.2725127130702035,-0.010689302707021842,0.006360767066390687,-0.08573566342652846,-0.19384007256165148
422,0.016549206777804075,-0.01226059410531474,0.07054576880804429,-0.2845497187752995,0.01689928936530553,0.0016906901562588014,-0.02524612502285228,-0.2915125443438033,-0.012987781206613171,0.0038715102064327497,-0.08002534689688312,-0.20611060778260268
423,0.01659004953385069,-0.01658101110791564,0.07059856555462368,-0.31106874380128696,0.012169711764865133,-0.0005733939481652537,-0.012284461379561249,-0.3045899880820633,-0.013162339077270543,0.004437719143915517,-0.07302809428329465,-0.21499869665216548
424,0.0166031675202149,-0.012070118568336204,0.06990962567495133,-0.34389187529234055,0.008063137478041302,0.0035747574698937875,-0.0052852287365481605,-0.3218359610101573,-0.00900895812176191,0.0039147486778697525,-0.06915081222709588,-0.22497096911399198
425,0.01659543983577606,-0.012585368429089121,0.06596122761611857,-0.3617671909515252,0.008787520222881366,0.008319866879595848,-0.004486592964678522,-0.33192429582074684,-0.008622918007405193,0.00831426235159423,-0.059797252969360705,-0.22994554852136256
426,0.01659811935028763,-0.012413694800738086,0.06650245279916321,-0.38827920474936106,0.006610570001712907,0.013088446995515974,-0.0005648984445700295,-0.35101835772429063,-0.00417044603942979,0.00845292176457182,-0.059695820391797605,-0.2445752225586351
427,0.016597350467252497,-0.012429911607798399,0.06639149256661701,-0.4267160519259554,0.0038196674901730962,0.016734561288769944,-6.793513560071716e-05,-0.3675947450514878,-0.003829651834629726,0.008946242920710945,-0.05902519920716292,-0.2575227415428788
428,0.016597558764263744,-0.012564220188916212,0.06627642874999964,-0.4430078657327632,0.004251647315985389,0.01913560941060658,0.004474302808573699,-0.38952184179008287,0.00042497118688991127,0.013907431108831667,-0.054119862675019934,-0.2684860862278622
429,0.016597458532174356,-0.012011630510959749,0.06679723903615674,-0.4609387079170088,0.004289690610014494,0.026122400135046703,0.009291134123574235,-0.41753040800506136,1.7653926865404443e-05,0.01883292073450499,-0.04883477741198914,-0.28091544401302787
430,0.016597651877277225,-0.015864450334154782,0.06270999515523742,-0.47558428093796246,0.0039634347362747496,0.025023811565537908,0.012666447514608265,-0.42879068198504494,-0.0011162789748572631,0.02163715776312277,-0.04764738753955858,-0.29239690886385783
431,0.016597188338383497,-0.016687404761223854,0.062216659000359026,-0.504277601504442,0.008405647120047844,0.025129407763537764,0.014301057327258337,-0.4483478670442121,-0.009877535748305077,0.021158700211677033,-0.03917017745076153,-0.30755083060844596
432,0.016597488118842738,-0.016598140141121747,0.06224422718553556,-0.530747852883627,0.008242107746344379,0.025616024518334845,0.01676255942630852,-0.4709371405697284,-0.012779475284351192,0.021429092581293902,-0.0299850220285091,-0.31792285782753
433,0.01660396919332281,-0.016497781773233685,0.06208431914780806,-0.550026869398954,0.009241907538128846,0.02133500641858817,0.019704066168388237,-0.49013756677690967,-0.016333900678095422,0.020854521178870603,-0.029905508128291895,-0.32732006765116095
434,0.016545906889090484,-0.017401323673424535,0.06335312456696433,-0.562112655380483,0.013051709969995027,0.02101515571402685,0.02081692534933512,-0.513268701563933,-0.016914452529521586,0.025362763226453842,-0.02591794755269412,-0.3367794605873461
435,0.016892289592945472,-0.020855525111906904,0.06683594355961583,-0.5808998421051266,0.012460753300537962,0.016217918903311215,0.024897114165696867,-0.526472164485792,-0.02134144332780868,0.025617016519559173,-0.016796221457552725,-0.34703307144973705
436,0.014846550862736672,-0.022547064380982126,0.06628106703434938,-0.5872189182778845,0.012751872182453914,0.012345686708841199,0.02522527053867997,-0.5366325511655206,-0.020732975333726648,0.03461447441952898,-0.016748276599117224,-0.36065913914349124
437,0.012181963543225186,-0.02446984352002467,0.06641422085630148,-0.6080625356556638,0.012156033926507116,0.012609355060439687,0.030166029865388928,-0.5510846782873382,-0.01708894937964371,0.033714755514440545,-0.011152293817848583,-0.36873791164514086
438,0.012022530005611818,-0.03028147507457734,0.06638354983819203,-0.6140635564048612,0.01610300266176926,0.012973573828127968,0.03366350068106005,-0.5653614602596425,-0.014375282958636984,0.034863648564957495,-0.008480372526404682,-0.3687454038346164
439,0.015895166476205272,-0.033779533837284555,0.06639627938503347,-0.6280280829779452,0.016874993485349543,0.010217647239139444,0.0350710018202631,-0.5770441783932044,-0.007919399656001299,0.04229761639416566,-0.006746085777646997,-0.38174438009693956
440,0.016123098229878827,-0.032810884219718214,0.06638412539241717,-0.6406655306389907,0.016806025337511347,0.008103707693901398,0.03789644630119032,-0.5852699766862249,-0.0065826530086198825,0.049002277877438855,-0.0016794967613266122,-0.39085009873452997
441,0.024679274429393296,-0.037263618133788146,0.06632781322519486,-0.64227276922075,0.016925673714317836,0.008454951071727874,0.04015466937015723,-0.5995948876424524,-0.0016168065162685276,0.05716903645667536,0.0035322406225396074,-0.3991568668530482
442,0.02492890998763938,-0.03750480848574819,0.06703567535855944,-0.6376451567430755,0.015840078281596417,0.008397158964373349,0.04460754441917615,-0.6008165306669774,0.006243408629279357,0.05981799201843481,0.004018782838516784,-0.4042679096491786
443,0.03025049336582719,-0.04177741401851261,0.07095156477564737,-0.6297975606344155,0.01245869908407684,0.008403152167400126,0.05379257206876703,-0.6052295781805384,0.016443328817728173,0.06277769996522092,0.008384382737475791,-0.40457914626922914
444,0.03172121308841626,-0.04188916841809454,0.07051739758964579,-0.6273419891805448,0.010835785999068042,0.008407202304395301,0.05458554145045105,-0.6051185123495124,0.01703331150193912,0.07647176776863909,0.008664217828341349,-0.40971710363205804
445,0.022228842196041338,-0.04920367226183676,0.07014155773637037,-0.6151841176863488,0.007561069819862513,0.008376554667498521,0.059064520500656956,-0.6037896184333436,0.017105471559172476,0.0853033407246156,0.012815114825383615,-0.41424942161876743
446,0.021339810136568133,-0.0544791749527874,0.07326090792902736,-0.5954345453911909,0.011580897533972281,0.008552211066456502,0.058533120605499554,-0.6010598669835271,0.016462930293560628,0.08575397950573123,0.014807588794654854,-0.4194790176030802
447,0.015910618388945575,-0.05540586922395366,0.07492176117353022,-0.5815187512607117,0.012743789892182486,0.0072857176945528975,0.06008466600245239,-0.5966928497220253,0.011128071656969562,0.08957689433105706,0.02181920045095058,-0.4214567333786426
448,0.009599931931137921,-0.06463619543463389,0.07464135252971935,-0.5632265253991255,0.01260317249703516,-0.0010841184482508277,0.06357128797652281,-0.5894763452707156,0.008075040501031257,0.09088934107885138,0.023413184115709612,-0.4215684251498784
449,0.0015373222188633713,-0.06625966629893505,0.0747057980369876,-0.5447664726325864,0.012638558143464065,-0.004820544190603365,0.06244678830158225,-0.5826037474765069,0.009032549377630174,0.095040918914944,0.024925601228960696,-0.417778462180314
450,-0.004013584379969867,-0.07360161008408089,0.07486563165372526,-0.5273085626695895,0.012081170225547147,-0.0037303038069035122,0.06615427001460678,-0.5652718835009685,0.005674619383005718,0.10648039079225366,0.032199855190481186,-0.4129397921348731
451,-0.004122393390648264,-0.08726956323055055,0.0798278538924035,-0.5031945788934147,0.007912184467468102,-0.008203030279235484,0.06704038698173694,-0.5462553974924049,0.004027385306875494,0.11156953034666922,0.03336113152811357,-0.4083616483993851
452,-0.004586087560155411,-0.08740296433423178,0.08335777896268795,-0.4781825899415878,0.00887424925418207,-0.00846093358834209,0.07116907147350321,-0.5365454767585027,0.004288753974055282,0.10978680926548222,0.046244512356523326,-0.4085406633574369
453,-0.008617179198616777,-0.09156423594705076,0.08263163756012357,-0.46235553811652785,0.006262288969301778,-0.012879659083669177,0.0713826192168945,-0.5234595470714699,0.004252851389908731,0.12293152928276549,0.04665889468016902,-0.3992975035129198
454,-0.008572404392939425,-0.0923252764965081,0.08478750823198188,-0.4299013315409988,0.0038621568838471346,-0.012718274356617869,0.07175059023323002,-0.5100014296955443,0.0042504404278807546,0.13233019140353924,0.04746658643492744,-0.3829257483011683
455,-0.0061070272184694805,-0.09696179768677267,0.09016223371939734,-0.3899395337392403,0.004266033070235177,-0.011184352497705649,0.07783875871638865,-0.47829510586066387,0.0042973884094414825,0.1364488282568385,0.05120327172985536,-0.3720607908994674
456,-0.006112899097759935,-0.10457453170832517,0.09156036729145588,-0.37872534435968497,0.004192296318497067,-0.008044073415112037,0.0865821511264658,-0.4608531422664652,0.003996294252414725,0.13580760334116115,0.052557764080921325,-0.35796430303624655
457,-0.00868307645904678,-0.10840529762260542,0.09097621402567395,-0.34770317107357196,0.004202156145130242,-0.008168427709871645,0.08772727086968808,-0.4496384930903149,0.005832933105715882,0.13789574124834603,0.05547457969631761,-0.3390473713660393
458,-0.008229333223617206,-0.1078664596539134,0.0953561460369971,-0.32538910653763403,0.004200832423020268,-0.011053085625155236,0.09322083383909985,-0.433324257314021,0.009059674651654635,0.14040877178340874,0.05737987268349631,-0.33217513855738345
459,-0.008308448243159187,-0.10769481500917971,0.09540070833371839,-0.30026094084993976,0.004213127208340521,-0.016296226373645535,0.10062859766340182,-0.3973762598292922,0.007924380445444277,0.14304809763118395,0.06311847053194808,-0.323079766240293
460,-0.008298219420564959,-0.11195228768784006,0.09532491084753744,-0.25929085080379344,0.00412918190992475,-0.016935786935058882,0.10035257720893015,-0.3731889894949159,0.011845560933832593,0.1448489153245169,0.0636895884854172,-0.30457035812865774
461,-0.008292890096602714,-0.11651710216184806,0.09636964589946814,-0.2293425466996652,0.004568859721089969,-0.0170540871622784,0.10921898721590395,-0.3454937395322853,0.012579700479728319,0.14494935963502914,0.0677278684698474,-0.2964616282946919
462,-0.00834794576081778,-0.12137997575562373,0.10130008764379315,-0.22877997660228225,0.0019755351605135786,-0.025830178495819586,0.1092732050569723,-0.3287020479799747,0.01681469281189807,0.14066174403609402,0.07242897396306293,-0.2823660826424273
463,-0.008007432835293107,-0.12426281981296125,0.10635819970354819,-0.20248996498054708,-0.000327122268776414,-0.024952947554307315,0.11562402031284194,-0.3237354605304188,0.01698341975606762,0.14058271074700687,0.07218013563875751,-0.25807230161077377
464,-0.010026319451481063,-0.1277188683045289,0.10766548841461032,-0.1731342085339168,5.971784087501503e-05,-0.025451869933141254,0.12230340553302844,-0.3044212641117345,0.017136564658977782,0.1449741676008589,0.07311199171629831,-0.24788578410864326
465,-0.012433276053534293,-0.13331688710472853,0.11119585296409897,-0.15952454546408154,-8.206976770717053e-06,-0.023880612574178204,0.12356240156703271,-0.26917386214102124,0.016321515986971544,0.14453092744452703,0.07855451376526111,-0.24176437631031586
466,-0.015025748673984091,-0.13479146563103367,0.11187287054689841,-0.1370106628422259,3.551726788609554e-07,-0.01572704782892211,0.12667826892630055,-0.2442111901643221,0.010656899482858237,0.14495217757827963,0.0812083108408259,-0.22367765858323024
467,-0.016859945387852102,-0.14045270103549176,0.11609994464584694,-0.1228998861895503,1.7548795433700839e-06,-0.009453057994689316,0.12519083728602867,-0.2297215711654765,0.009021862986993413,0.14310753251094208,0.0806236943848022,-0.21291480191691678
468,-0.01655062092836736,-0.14093624668768803,0.11613419665823975,-0.10582933828936995,-1.3330565709339868e-05,-0.004620549460926403,0.13309126896964568,-0.20247469538039717,0.003471154296315579,0.1373854073491845,0.08142088909330862,-0.20780919134863376
469,-0.016611436314688224,-0.1449238013416062,0.11615265813917516,-0.09459942354178609,7.828931890513562e-05,-0.004262222817881551,0.1384550141287762,-0.19246127166620894,-0.0005406305424406237,0.1363854342159409,0.07686929952565748,-0.19285317903858876
470,-0.01663650579586582,-0.14950210374471623,0.1165203730193546,-0.07944803009083955,-0.00038369326693371596,0.0003182677577168394,0.1429445084977406,-0.17361388844785194,-2.7392503164191083e-05,0.13271733120406948,0.08058264205158283,-0.1803200187019844
471,-0.016067655514842568,-0.1487528405657728,0.11415626876539393,-0.06524349238481035,0.002341058231387661,0.0044568129560965605,0.1434192452883934,-0.1600581578858231,0.00025471750728837646,0.1284975115361003,0.08081689995051787,-0.1688520784839398
472,-0.012205944799426516,-0.1452502912725647,0.11381176130169081,-0.05628457163318242,0.004509534832834653,0.004000029217334304,0.1475243847981238,-0.14678890381716136,-0.004252334637900022,0.11477626219408735,0.08087899609416305,-0.15748692062630468
