,I,aVR,V1,V4,II,aVL,V2,V5,III,aVF,V3,V6
0,0.1645021645021645,-0.08874458874458875,-0.07142857142857142,-0.09523809523809523,0.1038961038961039,0.17316017316017315,0.0367965367965368,-0.06493506493506493,0.008658008658008658,0.03896103896103896,0.05411255411255411,-0.06060606060606061
1,0.16532222918997203,-0.09040684212536922,-0.0697529079298225,-0.08183066095360417,0.10389636759739605,0.17293299940027512,0.03535498330810396,-0.06007228388580449,0.008657223019019613,0.038960986868517365,0.05633970620140058,-0.060441440855371495
2,0.16793660307866048,-0.08623886852949418,-0.07389195453935042,0.022738335993367935,0.10389479224653461,0.1743545281559671,0.038160008056582,-0.05517002431768253,0.008661921539482477,0.0389612967872358,0.05625127475779014,-0.06148874442656302
3,0.16555507614567502,-0.08646471139357363,-0.07390354835556394,0.05564800994611074,0.10390316633880602,0.17649858459735676,0.03549730771592377,-0.03983749785038695,0.008637009263428938,0.03895963680053993,0.0562846852329185,-0.06582895362610344
4,0.1693294593530021,-0.08762101140098341,-0.07115181335374964,0.07819090927769987,0.10386394743821134,0.17162224199225143,0.039975641451664184,-0.02053655216353175,0.008752929555977325,0.038967566191681555,0.05627516541288262,-0.06225443972460512
5,0.16896387071614247,-0.07918277743901267,-0.07154117325922901,0.11584085184025876,0.10402003053835915,0.16063835420137407,0.03603183863522414,-0.01189358238175229,0.00829745716913266,0.03893479316648525,0.05627745497443153,-0.06295245811236226
6,0.16601610499929564,-0.06616795776299886,-0.07393131541793242,0.13315896739538788,0.10351345587341187,0.1517289186433973,0.034451762524308656,-0.0053494691688909385,0.012008217227846752,0.03905009387178655,0.05627699711379003,-0.06564594392724708
7,0.15656136428372575,-0.06472463265324148,-0.07354297300387844,0.15779029221777618,0.10799303454464086,0.1486775193402243,0.034584973554142175,-0.0003377179213015344,0.017081105761927663,0.03873941946951582,0.05627703924409708,-0.06098493281732622
8,0.15146528853487484,-0.06495590833822106,-0.07359636495711516,0.1679917646579614,0.10818749854179655,0.12542522961265368,0.03463419061410512,-3.684064708974616e-05,0.022026286815716205,0.04325422191158133,0.05627704402497461,-0.06060548167333385
9,0.15152349194228712,-0.060324083483519975,-0.07359423583332372,0.1775853860722017,0.10824865884229727,0.11174463129824475,0.030030535276083393,0.00464770981672787,0.026276726769634974,0.04808206414869277,0.05627767930045126,-0.060559653096509944
10,0.15177600841315222,-0.060954229693489875,-0.07359242846836463,0.18263343114044628,0.10823253283217411,0.10702742522368747,0.03041608913860746,0.0035835728553031054,0.025877016322585614,0.05323320835852678,0.05627230574496646,-0.06084447990234238
11,0.14972931802163095,-0.05899595052333315,-0.07359328773695872,0.19281568886361558,0.10814535935943749,0.10351658108902727,0.03026889136271998,0.008610375627743472,0.025996868454005787,0.056302781160880035,0.05630308827187306,-0.05907877671855057
12,0.14678375117157136,-0.05629704168143982,-0.07359301545356375,0.20124014521359124,0.1085730700378815,0.1039025747725542,0.030313687973267237,0.01835394380920969,0.025977645785605744,0.05829144005872944,0.056158233082478845,-0.05584217847692894
13,0.147264567013613,-0.05353974675223405,-0.0735930873581998,0.20384313080965372,0.10538981628789593,0.10424092133080094,0.030292240378823408,0.019153670097129892,0.025944555473212987,0.06099394542203318,0.056742223404833696,-0.05637009665497978
14,0.14717599476555626,-0.05200048055332546,-0.07359307055747655,0.20293864609731585,0.1000276185766587,0.10079212063946624,0.030333609984868837,0.025321131965492,0.026043692147707034,0.06050589805034174,0.05278768843547731,-0.056262446785791315
15,0.14718442664036874,-0.04841101367241789,-0.07359307479678463,0.2066073460767069,0.09950819245312373,0.09569817715776234,0.03022926338489619,0.02574247264122037,0.02602407789104891,0.060694383703580976,0.05186147380814627,-0.05627396503803565
16,0.14717018195787762,-0.04331884552712234,-0.07359307203107295,0.2079658326781992,0.10414328358414143,0.09085347399554737,0.030307412485054724,0.03018003965101992,0.03060796234446139,0.06056712360687182,0.05194351398859212,-0.056277358800906625
17,0.14736934627163242,-0.04333579234156922,-0.07359307145130548,0.207774618678186,0.10372912587359895,0.08635121816105963,0.025703990362244605,0.030247834080387025,0.030256047437592963,0.06517629595546322,0.05195405903131576,-0.056381183652605284
18,0.14587658383045504,-0.043279943969270714,-0.07359312154438502,0.20779078361298342,0.10427922559906116,0.08666990643727815,0.02608750595435927,0.03033552908498952,0.029950758156242364,0.06486837075032093,0.051945793130972015,-0.05536805742106681
19,0.14229536782102614,-0.04323449863541119,-0.07359273032361116,0.20779077287141695,0.10167251765705504,0.08655612384889722,0.02593380736813141,0.03026996059187421,0.03274406286812642,0.06472382997131934,0.05194869487402368,-0.051388480635887517
20,0.14342249780243993,-0.04358250709310972,-0.0735949190662005,0.207812621755892,0.09923450320863342,0.08657592681189526,0.026013742838534522,0.030422949123747118,0.03492450086378181,0.0665731062525698,0.051947896879353285,-0.05249836185399893
21,0.13956368661534094,-0.04112349686979779,-0.073584656087367,0.20767955981055433,0.09962251840524916,0.08662049270922925,0.025846475798230607,0.02980389649600704,0.03458798680263731,0.07233578950972064,0.051948084691093625,-0.04913679996047519
22,0.13840161912885768,-0.035158668563736555,-0.07362657888529242,0.2083119673076318,0.09956149732257016,0.0864437104587103,0.026398714787560725,0.033578133693074066,0.0346362463627246,0.07377238468536114,0.051948043921489676,-0.04738274652229457
23,0.13853160369211925,-0.03518394519281114,-0.07347922006828188,0.20659275464228288,0.09956659396310936,0.08688618122488652,0.02205916202534922,0.03439927233553474,0.03465307308862306,0.07358005119694716,0.05194805798099214,-0.04766401496818092
24,0.13853660325753958,-0.026075703798770646,-0.07388487226857007,0.244705696196764,0.0995675665668144,0.08225038732451949,0.021643752680361478,0.0388328831703714,0.03443219810925672,0.07358553037751774,0.051948062178570356,-0.04761750226002143
25,0.138493779900454,-0.025574105811927077,-0.06931386851618838,0.32010635190571024,0.09956693336237006,0.08066470207600869,0.02173867389345137,0.04442076165324846,0.03603580100611566,0.07341648548549387,0.05194785609910286,-0.047291767126801595
26,0.13871453997974967,-0.015209747911017419,-0.06932624687786543,0.3533580021866146,0.09956714569469943,0.061157815553293485,0.020670829863806778,0.07282699199226685,0.04024460397427822,0.07528949931767238,0.05194941921953435,-0.04219151452497457
27,0.13710836906738816,-0.005199241871198953,-0.06923558097700609,0.39118669369579956,0.09956708586650267,0.05574812645885749,0.017187028687004932,0.08628063705193646,0.05204557407042233,0.08295279786215944,0.051940856634604404,-0.03703552745278597
28,0.12865877109942744,0.0008360277198147025,-0.06927329142355622,0.42589170812457805,0.09956711352812021,0.056250987863918564,0.015314523806539202,0.097939910521462,0.056853057282479164,0.0835654311674669,0.05197994120852384,-0.034592577039630056
29,0.12171226139230532,-0.0006286270560986941,-0.06926018306806242,0.45812213751902897,0.09956706579564766,0.037433310949561836,0.01248522540337748,0.10176286269876154,0.05627523204899505,0.08992089699786059,0.05182701002947331,-0.03241493520635329
30,0.1211625076163806,0.003309750912266888,-0.06927111948499269,0.46092402409775723,0.0995671346410176,0.026245391474597903,0.013477158691696427,0.10685099154577189,0.05637459842786097,0.09021215898793492,0.05232085989539895,-0.026589790537502097
31,0.12121000164328707,0.004437306890358887,-0.06924028292652641,0.47303040812535746,0.09956751138469491,0.02194772812314272,0.00907239109234114,0.1116917337040166,0.06094966537567692,0.09850295482630743,0.04787554906113665,-0.026098028495721428
32,0.12121534037388094,0.004343286273091599,-0.06933368520565616,0.47485394515303336,0.09956307023977164,0.021610280451123356,0.008655689634605402,0.1164976602443222,0.06048331680937411,0.0996126173010089,0.04768953388697566,-0.021663042958533905
33,0.1212109056176522,0.004625259150356906,-0.06915053663107479,0.4650818347656534,0.09959119655020275,0.01662340852762654,0.008639257943170846,0.12129920417474707,0.060639474156479224,0.0995994870374918,0.046987360339605676,-0.017122070956347674
34,0.12121246584951256,0.009068953540486825,-0.07390048025132578,0.46003110253045404,0.09945171040908177,0.0115603370457766,0.00866556542214841,0.12111237153963807,0.0605984555649633,0.09955154240937479,0.042848098277996315,-0.017412852502060372
35,0.1212120361882298,0.008447126791586176,-0.07817551401226076,0.4465073572234925,0.10003378667071382,0.008676445820582026,0.00865743679695808,0.12143845465100331,0.06060749419158353,0.09957199456660851,0.04341332836761328,-0.01719925614953831
36,0.12121214990869729,0.009107368375702557,-0.07783290697515417,0.4368044581665599,0.09614559972380679,0.006336108959899493,0.00865026659141002,0.11985391898975174,0.060605856162166565,0.09956582730028954,0.04325287417914242,-0.017755202908967795
37,0.12121208133418639,0.006019195830907894,-0.07795378139101684,0.4330868526065025,0.09514249295965133,0.00444783198992984,0.008691390174671288,0.11423840142981269,0.06060607333253287,0.09956738470481803,0.04332851265472114,-0.014534672684932621
38,0.12121218514739387,0.004064605658386706,-0.07788392451920151,0.429994025095126,0.09523428676716784,0.0008731625990343061,0.00854463614977261,0.11192863543843616,0.060606198329693266,0.09956704554118337,0.043190819060189664,-0.012751404385341005
39,0.12121236316818673,0.004366884493398767,-0.07804764141724028,0.4160547048465501,0.09524414679863553,-8.832641349671593e-05,0.008937095344205465,0.11383847211837876,0.060604882964306675,0.09956710731037044,0.04345209329432611,-0.013016899927868352
40,0.12120884938332882,0.004327017157948268,-0.07751921925677391,0.4049763358573436,0.09523581595561713,-5.6264151874680265e-06,0.004340067028278987,0.1004089791974322,0.06061285978615929,0.0995670991576668,0.03881295810383923,-0.012986800515444086
41,0.12123351024323716,0.004328129469146477,-0.08190009063141186,0.3914155557698018,0.09523873564132479,5.858487265689353e-06,0.004400243969208578,0.09949891184243062,0.06057432378446815,0.09956709935102898,0.03905738276326118,-0.01298566170241196
42,0.12110383038135507,0.004327730888403418,-0.08224360624711982,0.3885374250235306,0.09523794467535318,2.5850564632367154e-06,0.004299050473700388,0.08988303487305728,0.06073052277750233,0.09956709967589382,0.03892838069163795,-0.012987442633230529
43,0.12167459737621766,0.004339764958370554,-0.08226904852140582,0.36208423633902087,0.0952381249595294,-2.6116225461372457e-05,0.004337968876754922,0.08533376729975654,0.0602146209617994,0.09956709953236566,0.038969848888069376,-0.01298766651312944
44,0.11801578773107768,0.004275618969462878,-0.08225959944493752,0.3592479342975162,0.09523809065190451,0.00012007654621238815,0.004326796855147205,0.08214495969563693,0.06468095949204057,0.09956709957619063,0.03895904975430252,-0.012983192895225629
45,0.11673778171843577,0.004553205157067899,-0.08216151305783545,0.34930095316847937,0.09523809567840685,-0.00046323357761741556,0.004329306368382087,0.08036095041174099,0.06489968291292796,0.0995670995651275,0.038961269065044005,-0.013002554544955164
46,0.11689010838077074,0.0019846058710332537,-0.08267896979054645,0.330992072229733,0.0952380961368614,0.0035386108167960832,0.004329544090722608,0.0755222703168167,0.06496095047923751,0.09956709956717955,0.0389614666286398,-0.012934319282074882
47,0.11688738023482491,-0.007561941494856398,-0.07954314901774731,0.32236053792507435,0.09523808610067737,0.004405943915569913,0.004327466406412966,0.0669808145988757,0.06492625620027782,0.09956709956792588,0.038960343216078115,-0.01311713170889005
48,0.11688104733169338,-0.00882741976115509,-0.07766660047969566,0.3114244370378783,0.09523815194315519,0.004335249943169793,0.004329273818405785,0.06083342224131229,0.0649374022256264,0.099567099566022,0.03895681003896157,-0.012964368463588678
49,0.116883791069609,-0.0041657508850344045,-0.07795825315425718,0.29304809468689963,0.09523781673001468,0.0043227572377036285,0.004358643390782197,0.060608959518839635,0.06493454487177922,0.0995670995579605,0.03900945954663405,-0.022566877087261204
50,0.11688280117716789,-0.004368101800697966,-0.0779205791724076,0.2819653819586256,0.09523924822498911,0.004331285802470914,0.004085629986693707,0.060135614602488036,0.06493516005068777,0.09956709966265752,0.03865607081582864,-0.026166205074930317
51,0.11688377251040456,-0.004608407279964434,-0.0779260566612452,0.2767723436946211,0.09523413320912706,0.0043283627138134455,0.005926515385554468,0.0562567208878639,0.0649350522193596,0.09956709897889764,0.04087955865114452,-0.02592263950896011
52,0.11688100595847656,-0.0024117005551844463,-0.07787292269429263,0.24965838962973888,0.0952477972154274,0.004329157720619616,0.008663281069884149,0.05375455428274118,0.06493506515412514,0.09956710247091367,0.04366884777076695,-0.025957612127683886
53,0.11688818684565189,0.0003884649458888761,-0.07822441948667651,0.2381255311239535,0.09523866172681393,0.004328972972068967,0.011335200591647823,0.04449382374655715,0.06493507654397125,0.09956708727831816,0.04324236825938205,-0.026095745682041004
54,0.11688388107908759,-7.52954457569428e-05,-0.07605368757019623,0.2325613609529602,0.09502987806349072,0.00432900943448431,0.013242110292330661,0.04349902144951896,0.06493497387327593,0.09956714410993643,0.04322644075457071,-0.02555087957530824
55,0.11677122339767985,1.1319164292608643e-05,-0.07319741212701607,0.21307962116521098,0.09705607819464553,0.004329003923519944,0.01295297569748439,0.04032005303548147,0.06493557308204621,0.09956697192474713,0.04337829880127263,-0.02986932079244528
56,0.11784329909971167,-8.213038549922922e-07,-0.07366399690314654,0.20029020085380686,0.10617413073781529,0.004329004500371985,0.012987641630458064,0.03520846745371232,0.06493274765427234,0.09956727442388746,0.044095366926898416,-0.030307505753212737
57,0.12187023559612256,-5.565159352713749e-07,-0.0736084857425212,0.19205818139984412,0.11042486293189924,0.004329000395031914,0.01301735929611911,0.030380332730471183,0.06494393681859148,0.09956825913343348,0.05724600051074634,-0.03035130828996188
58,0.12022256696677995,3.5955276056394656e-06,-0.07353994847431812,0.17582399125291356,0.11529001582676723,0.0043290318070400005,0.012748230246530726,0.025525887517776954,0.06490825646386159,0.09955419753579227,0.05722684936861578,-0.030052836581531125
59,0.1270469754685059,-2.1702951198045845e-05,-0.0734743870284057,0.16658629340688205,0.12080301347663432,0.004328860238643093,0.014555872386558151,0.02061801721394035,0.06497709850202335,0.09964792582796103,0.061264963851025644,-0.03189692865451924
60,0.13044673096991247,0.00010801534965048759,-0.06905454457132074,0.1484475630249408,0.12093795422363945,0.004329641942647659,0.017437730149560206,0.016047338114283362,0.06515099910615674,0.09916402643758708,0.06001925774751185,-0.03464624036564897
61,0.12947710698768394,-0.00046094253093001517,-0.0685082341055442,0.12688645176314203,0.13028738118054067,0.0043265830726866225,0.019522503668191648,0.009308621082502124,0.06964322554835273,0.10208928722663718,0.0638683389655927,-0.03726996178453142
62,0.13886538988325176,0.0031356299092417375,-0.06319133802832395,0.11689087377737185,0.1351626948325232,0.004336491260171136,0.02526747042984963,-0.0011426118408158843,0.0691462669586592,0.10418268493704776,0.06507702530628581,-0.03933664895783395
63,0.14290167110970425,0.0044926677522739746,-0.05793816510155746,0.10220684731145946,0.13810391156954854,0.004314959291463364,0.026055273859254678,-0.00806923338965004,0.06926594002993358,0.1038522437025077,0.0649232097829067,-0.03862933094004267
64,0.14372210556930495,0.004316614460889717,-0.05647065137841935,0.08936886720826154,0.14381723514737293,0.00429296962369709,0.025973114720626023,-0.008485340897319782,0.06938207694799622,0.10389943382736117,0.06484993906836803,-0.04327631099749801
65,0.1492987093518906,0.004325888235890112,-0.05290244991479054,0.07496693917912339,0.15526128971774864,0.0049305761877089455,0.025970294673502106,-0.012796208329957637,0.06883981965814118,0.10389699181906724,0.06575164366155035,-0.043527865770181924
66,0.15332738764219553,0.004330882030562446,-0.051856267633563505,0.05764616288747085,0.1559753464003166,0.009031357899855735,0.02597672041629979,-0.01766901779662987,0.07319125750190861,0.10389496824891013,0.06970885304037022,-0.04878935186387554
67,0.16243059669369955,0.0043283751681705476,-0.05194324000811748,0.04957382264127509,0.15561696789612117,0.008922317366384418,0.02596692958661057,-0.022557664411521454,0.07358443487403382,0.10390030869253039,0.06923550072187024,-0.053509101026905696
68,0.16444616433793194,0.004329174113317892,-0.05151528435341636,0.037183223327528964,0.1600778103845203,0.006269702256635014,0.026005280477137998,-0.027351144424795172,0.0736143678378476,0.10387572135110613,0.06891588479344946,-0.058412073259224324
69,0.168652802997904,0.004328964955743042,-0.04788986743176584,0.027240933335518996,0.16459098732205857,0.004052534401633884,0.02584829799935609,-0.032501029863771916,0.07359001312907425,0.10398364653339204,0.07223801654965756,-0.06331575034235468
70,0.16870884759606425,0.004329012125115789,-0.05370936646028142,0.022708062041353266,0.16534548303641244,0.004270469950319066,0.0264016932986728,-0.035285877963819254,0.07356611943494581,0.10357244007008999,0.07725832752060666,-0.06802977493772777
71,0.16961446556001233,0.004329003112409623,-0.058158975172959246,0.0041669841888963815,0.16930200809000823,0.004518907937361717,0.022077767007362234,-0.033306036992260334,0.0737233289685514,0.10716790027036578,0.08220897258841221,-0.07332546903442957
72,0.17361237010360203,0.004329004429169523,-0.06356305318414253,-0.0013786082985669669,0.1688055214684908,-8.415735490587865e-05,0.021641059478365882,-0.04548564143528822,0.07310466855088256,0.1124550309422562,0.0821938827001404,-0.07357674983681638
73,0.17304276798080576,0.004329004349081605,-0.06505225496361618,-0.02143818459880328,0.16848060889267566,-0.000564712138347603,0.021727241088074018,-0.05176164763091726,0.07738315078136096,0.11271680201148503,0.0823160102236218,-0.07812349031370722
74,0.17318493409723734,0.004329004315511343,-0.06517589550512282,-0.032577438802187955,0.17205093621790954,-0.004514485308324791,0.020752693563199146,-0.0563849621675262,0.07784137621913184,0.11709229693559779,0.08200377334919831,-0.07847944340257058
75,0.17315989041519989,0.004329004336290824,-0.06454381982077083,-0.0355113992905651,0.1770511000410635,-0.006067446207010893,0.01684730101379406,-0.056721030731016676,0.08247208980272304,0.11795662051699858,0.08389399194392551,-0.08425087186305291
76,0.1731492192580485,0.004329004313363745,-0.07842310346374386,-0.04735461550026369,0.18187816899654427,-0.008759190539039532,0.017434169818010235,-0.062018367904226934,0.08213699585386063,0.12170640746848933,0.0898093611696471,-0.08686966440862548
77,0.17316510805855773,0.0043290043919112274,-0.07746572183342716,-0.05148234797895991,0.18217652539791834,-0.011173774929726868,0.017290383617845476,-0.06705430253335733,0.08228643199743321,0.12110098447937377,0.09065010291360942,-0.08660386236489541
78,0.17336781874987095,0.004329004095140518,-0.07920913284091936,-0.062441662721835545,0.1878867547719395,-0.016820691404570907,0.017320612181102004,-0.06971268307157724,0.0822442488461137,0.1212176896502795,0.09479571626210834,-0.08628046762531992
79,0.17951123287147214,0.004329005036044287,-0.08268637658757728,-0.06907318180747266,0.19040992242450222,-0.017343397103394765,0.017315525020216434,-0.06873804986282257,0.08224402720130354,0.12126168957558087,0.0952382046382611,-0.0901807146816903
80,0.18851409698186444,0.004329003091351597,-0.08214825395652556,-0.07374241532636212,0.19291032215948442,-0.017275112754762116,0.01731599550620242,-0.07289649242927347,0.08228034825406697,0.12111922774546456,0.09484516816159905,-0.09522180916475952
81,0.19060686939788932,0.004329000219823834,-0.08226991888346223,-0.078529332375055,0.19511631113481706,-0.01799090874099815,0.01731410569885247,-0.07364262061821614,0.08218737211299573,0.12594027241192338,0.09065018540065987,-0.09518735669443465
82,0.19082767993496336,0.0043290628298784176,-0.08225544933557756,-0.08338716741928637,0.19471794274668014,-0.021817395201162323,0.017332168603145105,-0.07356575734944033,0.08216568519871162,0.13541658698966416,0.08986289383554481,-0.09525974701065754
83,0.18723507365846928,0.004328615884123427,-0.08223433192472786,-0.08808177319605426,0.194852933144118,-0.02331384816924208,0.01722391205698645,-0.07416421758015529,0.07759099603309681,0.1387490397762548,0.08395057371203817,-0.09523200968691872
84,0.18248496681458984,0.004331003819080593,-0.08223436149792616,-0.09345160836272204,0.18968269302859667,-0.02653487236916085,0.017749033292939514,-0.07836937605108031,0.07804099182526464,0.13856573558568352,0.08200315499022243,-0.09523753087212342
85,0.17298040628222974,0.004320251050006644,-0.08274610898914586,-0.09505768800817785,0.18064495145178372,-0.025398111851692478,0.014550311866118734,-0.07779704050203347,0.07789662201227272,0.13808866674366904,0.08229488402089748,-0.0952467109019269
86,0.16841148904663278,0.004361997007769249,-0.08681664102218752,-0.09841635636323413,0.17465356843889027,-0.029750674022195094,0.012779220452625204,-0.07795205824185353,0.07789659754887074,0.14155727772834564,0.08224576934263592,-0.09520754431732023
87,0.16195901961083697,0.004227603840690175,-0.08772741719591218,-0.09964289015066172,0.16588778511216234,-0.030185113440462683,0.012935836321961535,-0.07791587664772219,0.07804089934767836,0.14304155496518609,0.0822510274476704,-0.09531490033125889
88,0.1549140320397177,0.004517676701811279,-0.09318341156475617,-0.09971229895303793,0.16432688710205048,-0.03474204453753476,0.01301204697306067,-0.07792312558819707,0.07759207788590315,0.14284225703652442,0.08225124504097076,-0.09521430059009121
89,0.1565244431581631,-0.00011367533180011687,-0.09790328283947652,-0.09511642412678227,0.1645325752809337,-0.03522114864575083,0.008498009414062636,-0.07792196393376226,0.08216809652099794,0.14286188407966008,0.08225188461227255,-0.09982529378499044
90,0.15264650714202502,9.046145145757426e-05,-0.10269245973855967,-0.09532716836951748,0.1644984204905809,-0.03924184049179534,0.007879382465158078,-0.07792207142177526,0.0821869484545267,0.14274842469121415,0.0822460444248433,-0.09945210872470164
91,0.15171379659871084,-3.196258150251229e-05,-0.10778018798784646,-0.09520621725864148,0.16450169344904986,-0.040253308635083904,0.0038112248309763617,-0.077922086131468,0.08228072288696361,0.14371488433718654,0.08227440574469598,-0.09962459503131811
92,0.14740545855620815,8.388658960058508e-06,-0.10828768966882953,-0.09524698832708342,0.16451232792147702,-0.04633421993315444,0.004539641692540663,-0.07792207485134964,0.08224210332574354,0.14939175746818956,0.0821590099477807,-0.09944559109125732
93,0.14723035945983506,2.1188038089680759e-07,-0.10338786261409111,-0.09523701263531315,0.16442905232429184,-0.04736899082499332,0.003959904108829805,-0.07792207863162655,0.08225330347054136,0.1518163156518376,0.08255263888982678,-0.1000266398761645
94,0.14715450055010462,-8.442413629429878e-06,-0.09930446514397133,-0.09523375854399671,0.1648928150661061,-0.051277954120594084,0.007259359517757724,-0.07792207854155765,0.08225060925078269,0.15145367712762609,0.07851318447018155,-0.09624496880980021
95,0.14721845273130044,2.7632179538988137e-05,-0.09949221286835154,-0.09525494070951947,0.16204863347287182,-0.051984752782891365,0.012655990597273126,-0.07792207466830704,0.0822511998646076,0.15152526151851828,0.07355491167265095,-0.09504378249630274
96,0.14706845433106544,-5.440099684968268e-05,-0.10035731000607043,-0.09519051885165845,0.15862516991987038,-0.05189397590812687,0.012992280746129483,-0.07792208882609335,0.08225099388162439,0.15151415928168413,0.07378849046991978,-0.09526598559361639
97,0.14767622285987636,-0.0001098281362769211,-0.09451226072878664,-0.09530542684920645,0.14101441804522938,-0.05276569680873353,0.013000521895445009,-0.07792205222931434,0.08225087494757971,0.1515150920153947,0.07247067267808344,-0.09065960741944638
98,0.14387673271093376,-0.004657185957574943,-0.0903281234613841,-0.09042418019539138,0.13837216805961972,-0.05569581651310769,0.012981101238433252,-0.07792207302778972,0.08225445752073345,0.1515145423458689,0.06919284363255689,-0.09100161406509444
99,0.14297235246904055,-0.004209220591487436,-0.09100311270485013,-0.08100568724772102,0.13852305259108696,-0.04991235807809042,0.012989270106404377,-0.07792264259925548,0.08222827281500031,0.15151996414042823,0.06699414707098104,-0.09096750033878015
100,0.1386801103866175,-0.004368047882084157,-0.09089759835477315,-0.07788139961576684,0.13800402335013712,-0.04474083588774642,0.012984237666401884,-0.07791764039751473,0.08236775840328873,0.15148965637412826,0.0649580269271443,-0.0904876062136662
101,0.13377698265500837,-0.004295689562915867,-0.09089760368156226,-0.07669652102218945,0.13226777203356624,-0.04341146272024008,0.0129965508726675,-0.07794683801116133,0.08175386024235562,0.15162872952386777,0.0617714758066866,-0.09365537243811509
102,0.12892607120776922,-0.0044278462416940815,-0.09105784539310739,-0.07090062008146884,0.12997712236240402,-0.039896074330102366,0.012954705993847425,-0.07780683480306765,0.08562537195029062,0.15107904056683266,0.05672013439249574,-0.09548061985319023
103,0.12363926256824977,-0.004020823798061755,-0.08981767643210954,-0.06904737189707273,0.12719051936571696,-0.03484915448678275,0.013068530224791042,-0.07838638847388127,0.08640287526970226,0.15496872257620617,0.05188558480036169,-0.09520647581421637
104,0.1212628268740164,-0.008186485868760418,-0.08603593501460717,-0.06919631636392673,0.12543093575459352,-0.029982683767919852,0.012957513429402528,-0.07458146037801838,0.09087548435126071,0.1560978498743618,0.052017468808254405,-0.09523865527958571
105,0.11864406565797088,-0.013107920647069813,-0.08704527480031429,-0.06956375240628747,0.12235728996493603,-0.025133768763292992,0.017500633258394536,-0.07345185665501819,0.0908315714649562,0.1513786087630269,0.0519226743864043,-0.09523941114213015
106,0.11439889434696077,-0.018126921904347924,-0.08402388616072796,-0.0650330024415876,0.10818373095684304,-0.020131571966424185,0.017858715960526208,-0.07360704203657087,0.09094196311902629,0.1463943556042984,0.05195386767563141,-0.09523752477730435
107,0.10095527183011034,-0.02178058569588144,-0.07890000331332916,-0.06498614422260464,0.09919838118653806,-0.015911912164701135,0.023686911983308242,-0.07394297831016712,0.09089897282542309,0.14269831825541565,0.05195266619551139,-0.09523827038557062
108,0.09523272334725437,-0.0229428733189035,-0.07409910370711442,-0.0649053321096819,0.09971727634078413,-0.007358298926258688,0.025981648685057947,-0.07832401621894064,0.09091371780588256,0.14165200395116934,0.05192411722096023,-0.09523804011645425
109,0.09525799196004585,-0.02827959701736469,-0.06925002616114086,-0.06496431938065385,0.09950992015255189,-0.004632294782367082,0.028150033630804747,-0.07779819440996105,0.09089972880737213,0.13581355970747686,0.05202384529783688,-0.09523815104082084
110,0.09522689672214668,-0.03343663174580319,-0.06443967025701679,-0.06482996115625597,0.09964359219335284,0.0027840151072281226,0.0340168031412182,-0.07795397071618393,0.09093639301414226,0.13384264777370242,0.051801714528530295,-0.09523793502403051
111,0.0952596085994566,-0.03488595042269227,-0.05928095578801482,-0.06538457257972197,0.09931072901749792,0.008503007200419944,0.03443067892747787,-0.07791496775714808,0.09086386381989596,0.13463259500403854,0.05650549657153733,-0.09523849677886666
112,0.09514984650957367,-0.03442709358830173,-0.05648229682729294,-0.062043164196577356,0.10034697446225149,0.013340351468421966,0.03892652265017228,-0.07792342090213711,0.09071199604745321,0.13020070322400104,0.06085247752832604,-0.09523793972266327
113,0.09557734079842597,-0.03906850338905707,-0.052719462298568255,-0.06038286971341957,0.09131567093176048,0.01823652862721313,0.0388203759042379,-0.07792188583359871,0.08620571247197452,0.12990018833555894,0.06051830465073703,-0.0952311225185053
114,0.09207112151419965,-0.044048714477855716,-0.043973266754336465,-0.060630664887212304,0.09084850782230947,0.022788262644621745,0.03963794800767976,-0.07792208801007748,0.08670524119797361,0.12945585658326014,0.06063042249098665,-0.09529722488979081
115,0.08677289169448991,-0.04771360225686795,-0.04392652321646215,-0.06060865838890988,0.08557519648548043,0.029778038307247106,0.04531099054001129,-0.07792208333172769,0.08653998063588407,0.12426301452907265,0.06060015525633195,-0.09489899027614328
116,0.08660275006939322,-0.0491587458048529,-0.03611048970314985,-0.06068931557554041,0.0813195070417044,0.03797356181223576,0.04751487582416241,-0.0779220751946381,0.0866199195094953,0.11962903747914358,0.06060784955191612,-0.09734314809949347
117,0.08656190613595117,-0.05236554355189503,-0.03033108887013686,-0.05981790302141344,0.08624681090554236,0.038830586050053115,0.050288923895690105,-0.07792207879581392,0.08646617036508868,0.1141516683599109,0.06060394095112415,-0.09992576878145965
118,0.08658645058413002,-0.051976677866868354,-0.030087869050033824,-0.056055342131528615,0.09152484479941993,0.04220565656159285,0.05220245958406943,-0.07792207769526195,0.0868523023838605,0.1127849696636768,0.060609466633255005,-0.09950177857537686
119,0.08657835157310699,-0.05156382042764331,-0.02559131041638673,-0.05489056819888627,0.09120375215691798,0.05151890300356781,0.05192015948209314,-0.07792207795770659,0.08223233211406103,0.10903653846927357,0.06061757849094396,-0.09957567207334841
120,0.08658048667120644,-0.05591445486362491,-0.026100085413500805,-0.04943957402430349,0.08711765261876767,0.06085482954058102,0.05194634108004054,-0.07792207797376942,0.08246306598573308,0.10832393842125126,0.06044334153341392,-0.0995669261977835
121,0.08658000980395611,-0.05625685980291492,-0.025940248638163896,-0.0448850179397823,0.0865572877200287,0.06106656149405606,0.05184995525306806,-0.07792207774429495,0.08110046914964678,0.10381705484358252,0.061807574161695966,-0.09956675131025523
122,0.08658009557259255,-0.0566386578597441,-0.02598068162273743,-0.03962415303643354,0.08618008294731956,0.06644491173763459,0.05285269027192438,-0.07792207818562857,0.07784371198013722,0.09888724646971385,0.0653731119114417,-0.09956725164635662
123,0.0865800890017613,-0.06207489604518548,-0.025977471420647234,-0.03888438652725364,0.0818398129030704,0.07166755547787622,0.056591260487417645,-0.0779220793810687,0.07563679138578468,0.09488619618715903,0.06492413456551839,-0.09956705318785813
124,0.08658011193749893,-0.06501538462119484,-0.02595851828460402,-0.03896128633729942,0.0823735348844398,0.07339641008332556,0.057378572117607274,-0.0779220608035927,0.07327506966661575,0.0953590628338611,0.06460013899308603,-0.09956711210118298
125,0.08657981603319868,-0.06663814271329048,-0.02600573267183059,-0.038964664705630876,0.08222147776365893,0.07690214517801199,0.06656199744444664,-0.0779221868269834,0.07362940959658963,0.09512272626396412,0.06830745793635766,-0.09956709368657972
126,0.08658174826879607,-0.07247424077475276,-0.02602577392920224,-0.03896049117280984,0.08225530696963061,0.07767461945024909,0.06934429126884997,-0.07792152882976537,0.07360608643865936,0.09560021771017409,0.07335394731100427,-0.09956711144060522
127,0.08657196856153698,-0.07376006259770539,-0.024882984681639582,-0.03895546628447679,0.08225650439273038,0.08221378238186573,0.07284728362586854,-0.07792445007405933,0.07371252761254157,0.09215445161622939,0.07827641623404759,-0.09956707044554841
128,0.08661371491841391,-0.07355553614323392,-0.01695120289392023,-0.03899003805547806,0.08223840299093242,0.08304759817365324,0.07786971137971252,-0.0779132302314975,0.07988852239514552,0.08697655845961041,0.08222470503139064,-0.09956711229292159
129,0.086463493202969,-0.07358611286063185,-0.014366124506192098,-0.038838032992850824,0.08222350502067237,0.0963343461695251,0.08273735566410358,-0.07794896111218796,0.08738551626985121,0.0821833384588958,0.08444302740392659,-0.09956759237790944
130,0.08687587962334817,-0.07403922309447228,-0.007726028559415861,-0.03941964386487963,0.08276424347155965,0.09566757744799681,0.0876459772653753,-0.07787345079883704,0.08637092485904405,0.07305317089225005,0.09334422781407933,-0.09956288506362966
131,0.0822751628997611,-0.07831773028573355,-0.008892278372997746,-0.03539457970135244,0.08777804732906783,0.10368486617004433,0.09223142923904223,-0.07778139117786613,0.08767536207338235,0.07403110024635765,0.09788464922780721,-0.09959134659480112
132,0.08229454098764549,-0.07795963997775716,-0.008502966015021816,-0.034549187186079404,0.09429007071618488,0.11150394402236033,0.09900388567667313,-0.07326603717079389,0.10432621008196111,0.07199694405093106,0.10297806487840673,-0.09945240442299828
133,0.08245287143705668,-0.07720360353152393,-0.008963832389851333,-0.03462926930435588,0.10469020454445001,0.11264452460456859,0.1096774020725177,-0.07363407907929094,0.11572330953156854,0.06873309401722867,0.13451418667589576,-0.1000336767426982
134,0.08070681750309769,-0.0830553245118549,-0.004362260493785009,-0.034637204511871966,0.11242990181739489,0.11268263515258418,0.11578080384237112,-0.07396785212449447,0.1299870354627001,0.06980500746236729,0.13880669245471017,-0.0962329281730714
135,0.07747289609810751,-0.09056066732833684,-0.004158103929607577,-0.03463103037269916,0.11095578014926694,0.11241764341058662,0.12095064497572847,-0.0711251455395992,0.1312790357729229,0.0658873430646077,0.13880386593269786,-0.09511713937068238
136,0.07808056182555176,-0.09069073844562071,0.0013605034809288249,-0.03462645085858566,0.13372565260995034,0.12195058250772205,0.1211606998966844,-0.06940650690954149,0.1441379068977522,0.06471205186555364,0.14378581858167305,-0.09524083906069333
137,0.07768650844804965,-0.095242708112898,0.003993229334028929,-0.03466115490735269,0.13414165844579715,0.12576444202147868,0.11900535849454191,-0.06577926594426173,0.1435787689202249,0.06492743963037505,0.14853044638844387,-0.09524289173152288
138,0.07839191036656891,-0.09513318385929895,0.008302073191757292,-0.03451046741313882,0.13975831420268992,0.1252461259211477,0.07724959750427401,-0.06484941066980483,0.1521874341926258,0.05521212659410582,0.15387561206308523,-0.09523598431635297
139,0.0691232724454032,-0.09550113236961175,0.013308227242348838,-0.035076418026041625,0.1443561223494307,0.12715929418371033,0.05289240930172012,-0.06492958196865997,0.1594353807458339,0.052683698860655506,0.15591331129926495,-0.09523873860534729
140,0.06919554573462104,-0.09370375978599185,0.01600796350772449,-0.031023652583671492,0.14934385887565843,0.1329015132512257,0.008453443675915549,-0.06494148153262627,0.16034242037322868,0.05680221351309817,0.1566160851408857,-0.09523793175980551
141,0.06217519156822091,-0.09047543197145326,0.017486965494739146,-0.030182297699142577,0.15423433834818262,0.1343885524211676,-0.03722151348178868,-0.0649326587326218,0.16008475762387153,0.05614613777123447,0.1459502479403638,-0.09523813106924302
142,0.06760341529895587,-0.09100274056991227,0.01732331874500273,-0.030209085367534527,0.15910027392542903,0.13417313617339333,-0.21313607294785772,-0.06493575537718416,0.16478809962823268,0.05630309568021091,0.12579804149931487,-0.09523808846154483
143,0.07814387522911098,-0.09089224612977441,0.017412913385785156,-0.025687244818257706,0.1640977187454324,0.1342000463054908,-0.30951231915565475,-0.06493489596317231,0.16382542150928017,0.05627993359057622,0.11915859337058782,-0.09523809670907811
144,0.08854061336168882,-0.09091124766460264,0.02298421122790584,-0.026021856424853072,0.16899926874429022,0.134198370124007,-0.3622574635769663,-0.06493510069437945,0.1681209745847461,0.05625796530944119,0.05005995604785103,-0.09523809492304723
145,0.11114232098337899,-0.09090906847015824,0.014433464183162712,-0.026285106406451122,0.1784418415334786,0.13421370761715323,-0.47949047846808995,-0.0649350586710248,0.1555062739472166,0.056281052804455584,-0.07516034228577721,-0.09523808520357514
146,0.1503948451164352,-0.09090889191515061,-0.006265735382638642,-0.023910131926250112,0.18322738461315163,0.13411102333660938,-0.5214508578469608,-0.06493506568796824,0.12435737920850681,0.05665640560195671,-0.22631541082506543,-0.09523818151666688
147,0.1522720877397065,-0.09090997804334297,-0.01525606309401038,-0.021269738953897208,0.1861627678684257,0.13462221454495898,-0.5864096050696532,-0.06493506494575467,0.09589559038623621,0.061080996116073025,-0.2945533841120303,-0.09523759734235109
148,0.17461667728540964,-0.09090427313772637,-0.17775767628882694,-0.02171873082909518,0.18847596217714738,0.13150713719941956,-0.6480509443248823,-0.06493506489499606,0.07631873439924308,0.060139257251542594,-0.31846149330305623,-0.0952404552860017
149,0.17695650620525052,-0.09093166281524884,-0.35127335375031865,-0.021633254992029505,0.1908150029769025,0.12961782103767017,-0.7094331641297345,-0.06493506494306285,0.03378239219855492,0.06275496447330452,-0.3812669361385709,-0.0952284762303096
150,0.20999593144319406,-0.0908177234327782,-0.40514754006766657,-0.021646287585808274,0.19035861809340773,0.12990379453810086,-0.7181609779021811,-0.06493506497797014,0.020854418551651856,0.06528554479905542,-0.44430773442060423,-0.09527125083491259
151,0.23415117600900365,-0.09122197647519978,-0.5168670892020972,-0.021645890481914096,0.19426286920981595,0.1298693451669199,-0.7721018464176925,-0.06493506471436221,-0.01985311877084875,0.06487120879849452,-0.5159799465316315,-0.09515287490815613
152,0.26810177154196546,-0.08733010456331418,-0.6189896885723404,-0.021634751471616216,0.2083165193938413,0.12987536651758433,-0.8046639518448735,-0.06493506582643586,-0.044979550712332464,0.06494347251927834,-0.550231458365133,-0.09528167076891182
153,0.285604849020861,-0.08227672647979184,-0.6260432425137233,-0.021713129875608028,0.2074708848683451,0.12981334295752542,-0.8560972435480805,-0.06493506189766497,-0.07516862411461703,0.06493488332876535,-0.5780396764570873,-0.09075593147432666
154,0.289765448151518,-0.08227457414278187,-0.6953151376916101,-0.021287683030125272,0.20811293059559613,0.13020381501583822,-0.8689487462687174,-0.06493507263281097,-0.08117391672001205,0.0649347271875376,-0.6203694229425155,-0.09015395224444964
155,0.3036179275304856,-0.08244706471600101,-0.7266448517432015,-0.02379914628549138,0.20617762513159668,0.1277914808473643,-0.8876892361511753,-0.06493506152083575,-0.08562310736562176,0.06493521333314953,-0.6807250279668066,-0.0860810239050613
156,0.31133500408269216,-0.08080394733397521,-0.7414674955664116,-0.02633517722836715,0.20026472803810316,0.1251719673357045,-0.8944699285050175,-0.06493493584037419,-0.095108417542912,0.06493501964809752,-0.700398871034144,-0.08670713597759931
157,0.33428418406981314,-0.07747765924904056,-0.7674238226673333,-0.025903078398255553,0.199383653380105,0.1256321752348391,-0.9317708433324395,-0.06493617093862643,-0.099699359939551,0.06493507647332668,-0.7236111108510263,-0.08655223540138289
158,0.33830743205621105,-0.07801976813915615,-0.7778548752487313,-0.025989599624530558,0.19524688575306479,0.1254687030397439,-0.9612923133836511,-0.06492868036338734,-0.09953928708283512,0.06493506239869198,-0.7484480090737957,-0.08658519467841222
159,0.3536580506221318,-0.07790406498429922,-0.787747314783744,-0.025965901826353607,0.19480890221690664,0.1255706607369872,-0.9880741334487432,-0.06496545098388883,-0.09940641295966214,0.06493506540302499,-0.8001511215759386,-0.0865794053931212
160,0.3594126890328029,-0.07792448916154789,-0.7880301054469976,-0.025933038292627407,0.1947807595626852,0.12069497544511468,-1.016488438523847,-0.06481008956651027,-0.10100048135766607,0.06493506487168425,-0.8103218743894517,-0.08658010448407584
161,0.36692234325742007,-0.0779220188135414,-0.7929920399090368,-0.026472328504759016,0.19483262325756442,0.11569889627877589,-1.0802841446873923,-0.06537432487185528,-0.10990857893294204,0.06493506493710867,-0.8374266948552516,-0.08658011264068237
162,0.3723489559018811,-0.07792244359064006,-0.799479189726568,-0.03156826780090738,0.19469995221465297,0.11220561589803096,-1.0998892946385797,-0.061133507500856756,-0.11567557584798929,0.0649350649373452,-0.8787496679440339,-0.08658007486485103
163,0.3764764706553528,-0.07791807771790257,-0.8058169574455757,-0.036733345454018296,0.19527137473955997,0.11252577118867682,-1.195534582318821,-0.060582255180432004,-0.1285573468841462,0.0649350649340244,-0.9005126937237173,-0.08658009077165442
164,0.388755804864648,-0.07794568173130295,-0.8066587525312816,-0.03886309572073518,0.19174730633984965,0.11303302746500037,-1.2915088403470567,-0.06061105510531549,-0.14792840656633807,0.06493506493538707,-0.9266132132630877,-0.08658008263973371
165,0.4243139423771658,-0.0778090852194796,-0.8157281076760196,-0.041694149826437404,0.19047760952711887,0.10909309143186968,-1.3649821393053005,-0.06041936024273494,-0.1648856287474261,0.06493506493498065,-0.9764288247002607,-0.0865800991725696
166,0.4297256138048567,-0.07838740612116335,-0.8238883987176409,-0.04354622078088245,0.1867013614008172,0.10838959147094558,-1.506890582009034,-0.06193567968088411,-0.21031397371838814,0.06493506493508963,-1.025940114247419,-0.08658004371404139
167,0.4639039821708842,-0.07464515088767558,-0.8473746320792265,-0.04325331771832505,0.17715536029582837,0.10392154205706833,-1.6067850027745618,-0.06538940446577905,-0.2736638313291258,0.06493506493503923,-1.080720121665314,-0.08658019731134878
168,0.4862393672719294,-0.07345474406083059,-0.8532285073738999,-0.043292083142502116,0.17141594238551625,0.1040718371776903,-1.6913301609568252,-0.06482939096225344,-0.2955286049738466,0.06493506493512503,-1.1992295285119279,-0.08658002468769459
169,0.5170708381956597,-0.07360279035264056,-0.8790728100912218,-0.04329115233189799,0.16475882196128705,0.10296022949834936,-1.7638107428951966,-0.0649637532080098,-0.33808653438740344,0.06493506493501434,-1.3463151330179413,-0.08657831999965057
170,0.5371980832184299,-0.0736627739194028,-0.9228072098541105,-0.04328861621831222,0.1574979111895694,0.09911030636387845,-1.8264149897248325,-0.06490720046958375,-0.42250988031884285,0.0649350649342603,-1.3771406790043736,-0.08659552756508526
171,0.5626406993580019,-0.07293526157625237,-0.9462515452894704,-0.04329570604677315,0.14056027975763577,0.09968193450522846,-1.8726679631950462,-0.06497066437301753,-0.4545830413185832,0.0649350649425572,-1.493094890991951,-0.0864905302742643
172,0.6126341486384413,-0.06774114303371306,-1.0293002348487919,-0.04326251766752426,0.11241807640512959,0.09954224941903213,-1.925580640062263,-0.06514828909335715,-0.5436284713889863,0.0649350648905956,-1.572300270422781,-0.08700591767988593
173,0.620565945207397,-0.06259965530899951,-1.2462921085638328,-0.04341026097561559,0.08545952844583304,0.09957170834047255,-1.9768353562253267,-0.06963013251088555,-0.6159103387130922,0.06493506514987174,-1.5998497738833821,-0.08386805227252492
174,0.6575949090378571,-0.06030495577415539,-1.4453679695001915,-0.042824496489319394,0.05658320202706063,0.0995661350062164,-2.0132427560501913,-0.06914202736327799,-0.6670996696998285,0.06493506404293124,-1.666948396259768,-0.08200176701919397
175,0.6807428981329047,-0.06066296462595205,-1.50575451298114,-0.046712148366205464,0.04287812815053777,0.09956713766511376,-2.039304928604851,-0.0692970335415081,-0.7136312530292644,0.06493506809452143,-1.6768843795799462,-0.08228453738463354
176,0.7009283538669016,-0.060597948046560705,-1.5756276269809668,-0.04773148341548302,0.026706151201535692,0.09957517484897915,-2.073499315258351,-0.06925638912970995,-0.7387815899554209,0.06493505628850818,-1.745555955557388,-0.08225012467854464
177,0.7308353211094124,-0.060606474149336176,-1.57865909964943,-0.04761629772457305,-0.0050565356502355815,0.09950177295004214,-2.0263199212006766,-0.06926560477428287,-0.7659546508002412,0.06493507380305219,-1.760162153591815,-0.08224983371359819
178,0.7408103572183588,-0.06060629299107732,-1.6222153323223558,-0.04763716659338539,-0.004713571349123968,0.0999349465648785,-1.9618577069666354,-0.0692638244087829,-0.78305718003106,0.06493516873237395,-1.7679078961181238,-0.08225164317857984
179,0.7435927905118365,-0.060605944866442406,-1.605285401149499,-0.04742171426871959,-0.019321661745731328,0.0973112956353751,-1.9544139988203546,-0.06926409130587441,-0.7929070275463064,0.06493405014284336,-1.7388114085748636,-0.08225091002198492
180,0.7537293000506587,-0.060606097439093544,-1.5873448339951823,-0.0489397111519531,-0.037260065790755685,0.09524724201270375,-1.9051435055829775,-0.06926407257902222,-0.8022749625420689,0.06494118495266171,-1.7010167782832022,-0.08225112622702804
181,0.781376462327547,-0.060606050965390366,-1.567039329184979,-0.052119666238493796,-0.03917012884695486,0.09226325233727849,-1.8745694159372985,-0.06926406683069103,-0.8052317246828948,0.06490521477011456,-1.6608541657685116,-0.08225107258270721
182,0.7886052447899282,-0.060606062776903835,-1.5326087507109354,-0.05378495514729449,-0.03911325508611856,0.08699344433606251,-1.8576724522848227,-0.06926407011674775,-0.8067363611553459,0.06506009172009324,-1.6403620788882007,-0.08225108403064435
183,0.7957683695347422,-0.06060606020651956,-1.5183339032647185,-0.05958256603076736,-0.04346740192989178,0.082226347203392,-1.8202127836213642,-0.06926406903064447,-0.812764296675535,0.06448756640689379,-1.613600759717374,-0.08225108201437634
184,0.800035727327634,-0.06060606062108178,-1.516678792486827,-0.06076367638026654,-0.04435960892538212,0.07309324512287015,-1.7796250053379228,-0.06926406930516099,-0.8136159086620351,0.06869995304172262,-1.5729066090561752,-0.08225108225641342
185,0.8094769221697917,-0.06060606065673388,-1.4708309260432373,-0.06056881262207176,-0.04818576033303124,0.07381254775913784,-1.7531309256065282,-0.06926406931121137,-0.8177478266555424,0.06928857866223287,-1.5695784437584166,-0.08225108221350408
186,0.8189207193989633,-0.060606061089945644,-1.4657263749553757,-0.06060791101347829,-0.04717666623451298,0.07343863046572684,-1.7043353728054764,-0.06926406908064896,-0.818140081400927,0.0692050043574522,-1.534187314702645,-0.08225108265646765
187,0.8235535011250277,-0.060606055596918465,-1.4170341032032752,-0.06096409023908707,-0.05034716949784118,0.07404582564040131,-1.689373549293203,-0.06926406964546751,-0.8258342364446128,0.07004905807715214,-1.5077184969827722,-0.08225107987018611
188,0.8283914506494814,-0.06060609132707547,-1.4122311019780118,-0.06533187164386102,-0.05592823358287683,0.07075815799916944,-1.633267543996869,-0.0692640698276319,-0.852215815204078,0.0737460419261933,-1.4725929809777674,-0.08225109360120009
189,0.8340199870014064,-0.0606059092785721,-1.3757885759944937,-0.06481751681573444,-0.056227432162573976,0.0690399470724581,-1.5937548128802408,-0.06926405690492109,-0.8641098040525115,0.07540393728698173,-1.4097451115163653,-0.08225103576798633
190,0.8346461132445792,-0.06060669981534253,-1.348281914465949,-0.06493866449439803,-0.061066154827945605,0.06929084002521621,-1.587081462290831,-0.06926415734336033,-0.8788994166288624,0.07833543979799093,-1.3883821702525205,-0.08225124349650913
191,0.8450514048724922,-0.06060374892884875,-1.3161090883749365,-0.0650503918175323,-0.06628505597781931,0.0692645260734923,-1.5101768861952023,-0.06926359865077335,-0.898011705448194,0.07784215352139884,-1.3442603660160826,-0.08225066181136238
192,0.8537945001837745,-0.060612656289172596,-1.309314842624791,-0.06447783405784364,-0.07911505148140535,0.06926258748422742,-1.4854228681985673,-0.06926619438092757,-0.9156060400606835,0.07793403431690406,-1.3208331334021317,-0.08225134650138358
193,0.8306187410860058,-0.06059723438876647,-1.2633915407751322,-0.06849764324785595,-0.10041528621136102,0.069264663605604,-1.4236017775224468,-0.06925575777182216,-0.9189818263518346,0.07792123355509971,-1.243892322978298,-0.08225754711006614
194,0.8275001617438408,-0.06054435767079468,-1.2593191293076125,-0.06934801111000996,-0.11389879162274023,0.06926386894287338,-1.3994316950966283,-0.06929131497439883,-0.8626650069443185,0.0779214909428976,-1.2015812485205484,-0.08219380122733913
195,0.822413618794041,-0.06131701599796552,-1.2411544180296354,-0.06926688639379142,-0.12430428191407772,0.0692642404697584,-1.3335503784793126,-0.06920136046035477,-0.8647535467317421,0.07792573236414935,-1.1610119746747276,-0.08258494893844741
196,0.7946271443283857,-0.0653934370183984,-1.2065492121143542,-0.06925092015421903,-0.1250944518584103,0.06926355202404645,-1.2714150069301786,-0.06923918936260265,-0.8445114729432233,0.07790015275376966,-1.0972277648341309,-0.08017869025709315
197,0.7788491503881398,-0.06481281348078087,-1.1775284764810383,-0.06932556068077893,-0.13421098898957476,0.06926574066823438,-1.2077607431485784,-0.06453608589878837,-0.8108823085212364,0.07803093997944978,-1.0663395247172782,-0.07759103700914026
198,0.7807931633326074,-0.06496312369846695,-1.1294502406009561,-0.06893400851050982,-0.12427521735630702,0.06926028097439887,-1.1622969279598774,-0.06600320727827236,-0.7846329271938212,0.07745839625198275,-1.0279653935102182,-0.07787101437669602
199,0.7378543071844121,-0.0649295778651228,-1.0890917688516388,-0.07125108228314765,-0.12027922763978594,0.06926177183801822,-1.0788836232459285,-0.06969726342837879,-0.7685891748252375,0.08107401711329831,-0.9640109744367021,-0.07822279852249113
200,0.7315095687955593,-0.06493590968804178,-1.0712097026906267,-0.07397678051502284,-0.11411200321395466,0.06936082701202333,-0.9930826449690655,-0.06915583427153761,-0.7611093689199477,0.0823878811863563,-0.9009829554685723,-0.07364637038486403
201,0.717609873523007,-0.06493498916413573,-1.0092003945757257,-0.07352419010075141,-0.10011521056134356,0.06845257514832162,-0.8958456201102656,-0.06928748554289593,-0.713659072706982,0.08227637096501973,-0.8493758481713812,-0.07356831796646993
202,0.7014322927978408,-0.06493497213662043,-0.9999398823910339,-0.07357928741470032,-0.09483353316166504,0.06314714527197438,-0.8734264761619495,-0.06925982950949813,-0.7038171120971959,0.08245569682708356,-0.7972573635872944,-0.07440709601143237
203,0.6708616428316357,-0.06493597200644595,-0.9122572575558061,-0.07364438771697589,-0.09199207114090145,0.05836601800298454,-0.792680995138152,-0.06926462194699497,-0.6578184847580101,0.08694800900292607,-0.7332157284323279,-0.07839613506593308
204,0.6412759267062824,-0.06492935943005483,-0.8834719728482662,-0.07367824000391948,-0.08671406221224051,0.05358733199311446,-0.7156488883324956,-0.06926405929148145,-0.6344877951465697,0.08645766337318841,-0.6858498556905035,-0.07780067285692417
205,0.6156028757809294,-0.06496373108864725,-0.8360566054283675,-0.07822498675843827,-0.08137801933028327,0.04830127894243576,-0.6779208909046076,-0.06926404686551486,-0.5952010598968954,0.08661110717150987,-0.6135279259016789,-0.07794884898161922
206,0.58390835719626,-0.06481191910403246,-0.8028954436300911,-0.07779128686143225,-0.06762692259713503,0.04754953997617363,-0.6561225010244894,-0.0692640735736868,-0.5612895347635947,0.0865812601967415,-0.5871265188281506,-0.07791712727228517
207,0.5574950087753444,-0.06538942377253944,-0.7620229479287856,-0.07804754426846075,-0.06329361227346988,0.047617132514508984,-0.5748271825492323,-0.06926409926356948,-0.5311691038287197,0.08654902140463971,-0.5435998123275984,-0.0779227498373636
208,0.5286302973819426,-0.06126625947765697,-0.6945936282753677,-0.07748860735123257,-0.0608573565581576,0.0475893781298747,-0.5544017936497858,-0.06926391312297898,-0.49466132334903506,0.08667632687469672,-0.4683006884653555,-0.07792205600994413
209,0.514907431911038,-0.060554943526998445,-0.6265890320091557,-0.08056765475774519,-0.05598932984328541,0.047870626089197746,-0.49216921137743136,-0.06926471271969192,-0.4385685867203218,0.08642523469322437,-0.37894074355038593,-0.07792206275742607
210,0.5057508948797839,-0.06059522920263526,-0.596506689179616,-0.08252501399278805,-0.045386485587865885,0.0459779835454872,-0.39684389853018137,-0.06926181526099476,-0.4387687935339934,0.09105986976626039,-0.37335763479856166,-0.07792201073613336
211,0.47896517660404914,-0.060613865024086354,-0.563681388336518,-0.08220771738141668,-0.03867149977652789,0.04286957691608684,-0.3532748521162583,-0.06927014292054723,-0.40912904675721845,0.09080149400748705,-0.3102267852949439,-0.0779225313323303
212,0.46285295441481816,-0.06059774376441494,-0.5062346110524016,-0.08225499743632418,-0.03883157297795985,0.04336917562330459,-0.3097198693719243,-0.06925838615689871,-0.3673860752454815,0.09101775871080899,-0.2777300961386055,-0.07791989542184004
213,0.4502837629047541,-0.06063707173441273,-0.4786482914715102,-0.08225167696851843,-0.0010037191995524587,0.04330386773556033,-0.26447916100404617,-0.06918713022489371,-0.32915320477750165,0.09051359425744673,-0.21966989493568376,-0.07793104481472872
214,0.42573371340233623,-0.06047430974735916,-0.4311085078373247,-0.08225063643897725,0.004010155975348924,0.04323028728720995,-0.18717590666837372,-0.0700405090795087,-0.31183960016940243,0.09333537792812566,-0.1706484116831034,-0.07789085450650456
215,0.4088818571060203,-0.06109638914783972,-0.3658639339056747,-0.08225123924485934,0.006294247227050716,0.04321675427701374,-0.12306038391713,-0.07405501095360026,-0.25482130784374046,0.09565875944134865,-0.14620606805140832,-0.07800417385140582
216,0.38063545472765936,-0.056866873949774965,-0.3394295602890489,-0.0822510556605802,0.02276164857983086,0.038647511504727304,-0.09994486579677003,-0.07347188831703573,-0.23265217802619345,0.09482205280359726,-0.12359024749295737,-0.07786495080957133
217,0.37158868506043524,-0.05639337522041768,-0.29848145525035485,-0.08225100480112922,0.03556779464661157,0.03907849881960362,-0.06575454217743883,-0.07362053365162234,-0.19988047757585034,0.09935536249224337,-0.06267578450473878,-0.08248604502970508
218,0.350436014639547,-0.05181605757439356,-0.26823292126399595,-0.08225143719377712,0.053547982493972204,0.03892759329161245,-0.033131080219278734,-0.07358792955579962,-0.2024039228036727,0.09953192272504452,-0.03598036452931826,-0.08214320318999037
219,0.3161976321017163,-0.05188858957956904,-0.2280795872015413,-0.08224982946878337,0.056574355182943604,0.03896915370024299,-0.0021976789508349236,-0.07359336432457526,-0.18028634806015834,0.09959166929465779,-0.025188938851080735,-0.08228446310757902
220,0.31089540866644766,-0.05308771879520189,-0.1840770100110612,-0.08225461825040985,0.05670098948770178,0.038959198681528195,0.01597487266018019,-0.07359371778042048,-0.1464247021709901,0.09955859815744535,-0.005852171340959809,-0.08224248805739617
221,0.2931652079588485,-0.056748399929019616,-0.17845158852384588,-0.08224596660232796,0.06566128579279044,0.03896186427127891,0.059732832985807234,-0.07359758581283832,-0.1250790027120565,0.09956943516064792,-0.004973975598414306,-0.08225309753982749
222,0.27523808171412895,-0.05616609593409374,-0.15519362349631818,-0.08222350345447109,0.06461233156775138,0.038959883181449446,0.07948520457283423,-0.07354238968567774,-0.09448482077255704,0.09956654666998682,0.04388885876644205,-0.08225030225698846
223,0.26023888685890934,-0.05629943245529263,-0.12362614467280517,-0.08257508901179847,0.06542493882514802,0.03895930358667351,0.1237924370519908,-0.07391161778262544,-0.06931126551954474,0.09956722260834366,0.09678086210372906,-0.08225226154676027
224,0.2595043601646805,-0.05627344901120018,-0.11526242306878313,-0.07996751841277963,0.06222522123344317,0.038998283150017604,0.1424420142261121,-0.0716303532755373,-0.06289488661219031,0.09956704433952057,0.11411881450787549,-0.08225026842980096
225,0.2362162311111317,-0.05627739220706766,-0.0999073925417701,-0.07302544269614704,0.06057681832945894,0.03869684096954175,0.18044308031762812,-0.06932654969935101,-0.03166586093676731,0.09956716985161039,0.14148704262255712,-0.08223452654830735
226,0.2106106306827593,-0.05627710061582155,-0.05354168457807834,-0.07161574090174344,0.057341575050920204,0.040658362790259125,0.197840103358195,-0.06624948021853413,-0.013886777294802479,0.09956728893848468,0.1560715424109985,-0.08240054064163961
227,0.17992531874975087,-0.05627702196818779,-0.024835190621676353,-0.06876575424496088,0.04770030475774011,0.04370660881687165,0.2207902024951118,-0.06475997297456526,-0.01254907646049671,0.09956416585209794,0.17585601827949238,-0.08118486462878712
228,0.13546199364599734,-0.05627706788273197,-0.009146365763558801,-0.06968216949328505,0.0427542644328172,0.04320234872775174,0.23722949891568818,-0.06493015354493731,0.025501380937149657,0.09958690502581538,0.19491941862644166,-0.07532015863358356
229,0.12503732096797995,-0.056277055643249516,0.004756766515088579,-0.0656524399528224,0.038600181247215266,0.043311513648025,0.2763208767654556,-0.06486467137471771,0.04999249039821125,0.09946427328830404,0.23717947827629277,-0.07377126848774752
230,0.08679374480653235,-0.056277045035004226,0.03602325618580653,-0.0607708676657849,0.03906796139736922,0.04327398941159521,0.3043332286306364,-0.059055135066438225,0.06860679439067395,0.10002024629705558,0.2466088203073366,-0.070418130129252
231,0.07378331373686589,-0.05627710183113342,0.06877687819119163,-0.05611155064030506,0.03893487018150471,0.04326175398862448,0.3329418160134985,-0.05110671417441103,0.07485638427519976,0.09656242829101518,0.25558354046196474,-0.06895517886957454
232,0.06425229776121545,-0.05627691408556174,0.09171483396680025,-0.05652426896727625,0.03896644371511469,0.04383780838960499,0.3629104580325725,-0.05249930158048009,0.1023929685332806,0.09504713794912463,0.28500846704643207,-0.06939605983230847
233,0.06011472618878536,-0.05627733239873335,0.11826682957259319,-0.055091073477088824,0.038960151980606234,0.048135525914371,0.40061961365284715,-0.04972780697129561,0.10506457455656562,0.0952569473922725,0.29828920735568826,-0.060236928887062516
234,0.041902271564787374,-0.056277646685481936,0.14441508333264355,-0.051381479277083246,0.03896112318308661,0.04711443745820667,0.41383623710158013,-0.04524482513729652,0.10829317255299246,0.09524002875742212,0.3293356476497637,-0.05994999971601659
235,0.014433703314573108,-0.05626662140780048,0.17337512486815806,-0.05254054444834362,0.03896104511217698,0.050016542973934874,0.417995308442972,-0.03602854584665108,0.11095731202988669,0.09523638257633144,0.3466641015147696,-0.055980585731269294
236,0.013701527615854525,-0.0563491073722643,0.17643883972591135,-0.04890994443131092,0.038961089551188155,0.052253139283271535,0.43688792482685695,-0.034492000218230914,0.11238733456711178,0.09523878111850236,0.3528856700613231,-0.054822559449095476
237,0.006733794564573382,-0.055898727713722646,0.21549915013560939,-0.04783477568063407,0.0389606437480529,0.05190515020961486,0.47006492481554824,-0.034614609069963005,0.11645402306342954,0.09523754083485438,0.37196289627092555,-0.048744109402093956
238,0.00020358347292853901,-0.058623922878622975,0.237976733488847,-0.04370267505130834,0.0389630885716227,0.05193899282177119,0.47439215882827873,-0.034780444455373094,0.11687318792438584,0.09523983667688977,0.3859522505782146,-0.04787613165296997
239,-2.706988458386428e-07,-0.06092444122073589,0.25843668751278814,-0.04331175526502969,0.0389522034944432,0.05191575643480982,0.48401882717078,-0.033564924628427396,0.11690690471194434,0.0952315714656022,0.39149897638798614,-0.0438126583370576
240,-9.202742665890753e-06,-0.06055349496429022,0.27248872454689177,-0.038431026935774416,0.038992992502590744,0.05251989929310882,0.48483075034960477,-0.02986674866267686,0.1168740707979262,0.09525867033300932,0.39921776181644886,-0.0432752973598959
241,3.7916583960798463e-06,-0.060610481640477054,0.2836569508983109,-0.034361378499392796,0.03887330496274588,0.05678202511409102,0.495446478081982,-0.030288217692153514,0.11688517691892682,0.09519612548414488,0.39769995275515313,-0.04335816191902299
242,-1.2374628778676134e-06,-0.06060470893970245,0.2934867945441873,-0.034713418735736364,0.03903978846687153,0.055851364236620786,0.5184873386207345,-0.030778009137368084,0.11688481106141903,0.09517022145949332,0.400722672210558,-0.04246872422492296
243,8.822620077199062e-07,-0.06064265222710632,0.29863985076419647,-0.03463678188365643,0.03439387721842346,0.058337386002211326,0.5248988768277465,-0.026725882073901516,0.11687466509278813,0.0900565458966334,0.4057269635390493,-0.038517087454576514
244,-2.4515597463757555e-06,-0.060344341808266484,0.3085178475868048,-0.03451599362916811,0.03479876247701854,0.06359581937472004,0.532772263476824,-0.026128850309270413,0.11690780539393564,0.08625795705901064,0.41095996013179487,-0.03897053188321412
245,7.656716081610301e-06,-0.062283309647948086,0.3165245245025091,-0.03509381768371101,0.03425914416233451,0.06829419094119507,0.5366088526589885,-0.02161116649523873,0.11685284346053289,0.08667150433043666,0.4112437861926512,-0.03939081720184169
246,-1.5473037443726592e-05,-0.0653544112950835,0.31657327794070894,-0.031142874187074975,0.03678632476827288,0.07340400300436548,0.5429466979560047,-0.02169130333168122,0.11660999633996243,0.08655742771298808,0.4161335764113675,-0.035716551741145484
247,-2.87110815366293e-05,-0.06484801729418062,0.32482165039501115,-0.03020360859243096,0.03933735964687148,0.07356765599188562,0.549171938879483,-0.021890148008778688,0.11209262184534882,0.08658705548397608,0.42126305553150173,-0.03441170836991646
248,0.0005742431042054118,-0.0649496690652021,0.3296693438080827,-0.030303665000683776,0.03879234421309457,0.07361165139177207,0.5581225963871433,-0.01988771115197809,0.11306277580144894,0.08657165048499876,0.4238477249776321,-0.03470579794527828
249,0.00477709374430315,-0.06493376702187821,0.3288184616930349,-0.030307773581525383,0.03920676368551051,0.07359168073527231,0.5721940293208027,-0.017866785814869245,0.1101577660982536,0.08659650924712857,0.42883133723799555,-0.03014006771721031
250,0.00420525968848622,-0.0649353358401309,0.32919609335423616,-0.030300980740561388,0.034563158717460365,0.07356705196840045,0.577135326323783,-0.011358083190424174,0.1088511535149097,0.0865990954371357,0.4321485622482856,-0.029793719139223244
251,0.004357866084676165,-0.0649258849232585,0.3287412378849253,-0.030303667479027206,0.03471830274997388,0.07371475311782745,0.5880252165184026,-0.011530421346276942,0.10127956395239486,0.0860764690989533,0.443216794940593,-0.024067065623320574
252,0.0043233309597745994,-0.0650024353623938,0.3380714725261162,-0.030302864016031612,0.034600217896240175,0.07313479289836095,0.5946371380736316,-0.01321831581547778,0.09962117236550562,0.08181488701818866,0.445662673793258,-0.021343251988612536
253,0.004329864484249726,-0.06457266148736109,0.343254185441226,-0.03030305912396083,0.03464088601711516,0.07721791585210364,0.6051142304364504,-0.01296866197537695,0.09514717341935386,0.08237781568281267,0.45457084027326256,-0.02164684289227183
254,0.004328943313627649,-0.06718710451538941,0.35273828425153475,-0.030303062047124272,0.034629970535117356,0.0779809481233395,0.6146100982175657,-0.01793505754995726,0.09534038788180275,0.08221228005674067,0.45483051059271723,-0.021872947628002605
255,0.004328986586896051,-0.0696777636969653,0.3548315333839123,-0.030302905867376967,0.034632436933857515,0.07793174777879533,0.6141863541226261,-0.021948839150515688,0.09520102340732929,0.08229020147245977,0.4592218803234207,-0.021004315785714447
256,0.004329014502212409,-0.06893986827742335,0.35725635196562094,-0.03030330716644331,0.03463197717827321,0.07791449165454102,0.6271847200637521,-0.021551196208522437,0.09524825989572863,0.08214364125190257,0.45978941994743777,-0.030170674482640745
257,0.0043290004487650325,-0.07295195210407317,0.3597690654328585,-0.030303192425442424,0.034632035185504804,0.07792993420353114,0.6509476216661624,-0.021675634016204547,0.0952357676659567,0.08248731530590876,0.46720336893079967,-0.030436031974850567
258,0.004329008140159078,-0.07790683738183886,0.3588315546650952,-0.030296205122996255,0.0346320105246177,0.0778931146140985,0.6582609129705314,-0.02161098080272031,0.09523853681547015,0.07787160749689913,0.4782558180629922,-0.035700585838891484
259,0.004328991779958096,-0.07323479231385518,0.3633643707621093,-0.030354802124983933,0.03463230652899175,0.07804542593059866,0.6586603832281409,-0.021746599902658512,0.09523803307425788,0.0781271340696933,0.4805386749757462,-0.04068538237436375
260,0.004329047819126787,-0.0737314941184621,0.3636620401497799,-0.030015330313690327,0.03463035943788444,0.07746309195249063,0.667282204134952,-0.02137589438170085,0.09523809828995967,0.0768791061018827,0.4842488605151648,-0.04365446747972482
261,0.004328890493968904,-0.07355296355337887,0.3686364637337094,-0.032092501241552704,0.03464019175624562,0.0815777355887485,0.6867585716633465,-0.025855603817714415,0.09523810744173494,0.07316892605313267,0.48923734623780973,-0.043206689962284446
262,0.0043290690773881415,-0.07360292485470622,0.3733677343250192,-0.03665303107136297,0.034598536149657945,0.08229335600423912,0.6959776296271533,-0.03100273142833651,0.09523799999862037,0.07355311376762158,0.49448079847122567,-0.043314180314857904
263,0.004330843514690026,-0.0735909888567618,0.3782562917877764,-0.045404793747218654,0.034745887502857,0.08221396590780915,0.7043687863795194,-0.040260533177957115,0.09523864686613655,0.07416895582739917,0.5048558790965408,-0.0432637496083354
264,0.004312930766448536,-0.07359343727687807,0.3830820405868595,-0.047947501408016555,0.034360817004042477,0.08289433805412601,0.7098677549929728,-0.04486001763738462,0.09523550459703675,0.06970667177186204,0.5125117109639332,-0.043310081125314
265,0.004421706858217775,-0.07359303055040858,0.3879629498572678,-0.04757394190272135,0.03898270927669713,0.08703649285104506,0.7147565558838976,-0.04812679127538119,0.09524832028532482,0.07319459054731425,0.5196221616123149,-0.04362683358179232
266,0.0038934212387519472,-0.0735930727004211,0.39269137906611024,-0.047598579456567335,0.03888148196735982,0.08645636013562082,0.7193376682531692,-0.047033756215560635,0.09520560705971119,0.0736126094387487,0.526930051679842,-0.04780097076015658
267,0.00715679551204546,-0.07359307604897929,0.3978677884781679,-0.048006546476225674,0.03899264812354185,0.08660877994248528,0.7260279658079257,-0.05095263408757902,0.09530026737628347,0.07823636689992029,0.531552783866473,-0.048957597371166124
268,0.008879484938601672,-0.07359307261850198,0.3982885647671822,-0.05308750266389606,0.038950165041514356,0.0865744277047758,0.7332530970769584,-0.05175650073213303,0.09540080191427797,0.07779735932261307,0.5361406232638063,-0.052117516727887066
269,0.008632997612075732,-0.07359307387877852,0.3983174324080309,-0.058118598930039685,0.038971849576150984,0.08658095946659156,0.7446861645674372,-0.05612691424466955,0.0995952345387102,0.07795864036440536,0.5456347211649948,-0.05404850004074768
270,0.008656986564292538,-0.07359307352229823,0.39791080305619214,-0.060932534292327575,0.038927539930417664,0.08658001854268824,0.7697767071556134,-0.05624218237807501,0.10192362474087607,0.07791302060393498,0.5508529849058194,-0.05979620645851908
271,0.008659664578213258,-0.07359307360818941,0.40068946740710554,-0.060650001299020734,0.03906135657962503,0.08658007080392893,0.782913007227831,-0.05612579192928396,0.10924532752050496,0.07792401233484199,0.5605608751594808,-0.06078413635860191
272,0.008657015006253842,-0.07359307359039945,0.4091619184768171,-0.060174958577506904,0.038797341979211454,0.0865800959800716,0.7876698054995179,-0.057531928659361666,0.10768393284176205,0.07792173570106047,0.5732675971324462,-0.06053231137790673
273,0.008660260662240536,-0.07359307359340167,0.41546942318766283,-0.06429908545411663,0.04344856197379604,0.0865800854266282,0.7968129302900407,-0.061037767962075676,0.11105072045200268,0.07792211991093281,0.5794770570971535,-0.06518013367709029
274,0.008648653108607681,-0.07359307359307557,0.4269170611072366,-0.0649906058715907,0.043190761254131835,0.08658007681993161,0.7976309941995053,-0.06062235288249271,0.11660457142789536,0.07792207817582282,0.5913450146125863,-0.06461099212127733
275,0.008693460436172085,-0.07359307359305729,0.42807719066848154,-0.06494326033400565,0.043321402404748605,0.08658013203206147,0.8085435131057581,-0.06017297105439477,0.11685886416558837,0.07792207571784894,0.6016789346406411,-0.06644785935786489
276,0.00854981686993923,-0.07359307359307668,0.43678514347807423,-0.06492883499227911,0.043289674075761675,0.08657991914103584,0.8170143243459472,-0.06425607210256187,0.12139227540452076,0.07792207924470951,0.6052251773808951,-0.06929188668509827
277,0.008844319912983423,-0.07359307359309268,0.4372729481228387,-0.06493731329611215,0.04325700143095481,0.08658057395711023,0.8163471248347008,-0.06499407362487052,0.12205191129893647,0.0779220751746518,0.6194330500208591,-0.07179040682556795
278,0.004232448280185094,-0.07359307359297602,0.4423387547600756,-0.06493441837159457,0.043412278308887456,0.08657937806841229,0.8335493340027142,-0.06495734398261113,0.12611413938766128,0.07792208953885255,0.6238064249540414,-0.07399670188251532
279,0.003765405334269257,-0.07359307359346637,0.44741222724343205,-0.06493522393881501,0.04297545338747324,0.08657596311751894,0.8482618035153164,-0.06475806455629296,0.12509238168983822,0.07792203163269086,0.6299790794080659,-0.07321639161944962
280,-0.0004889904604052609,-0.07359307359174759,0.44990641799090647,-0.06493504220871037,0.047594933099147675,0.0866278071479815,0.8483822187433342,-0.06617548214109246,0.1280853723803112,0.07792223410326518,0.6399798034951888,-0.07786240653637655
281,0.00013054820616565467,-0.07359307359633095,0.45443834095346164,-0.06493502513450729,0.04782114032627481,0.08627843879960531,0.8580689630102197,-0.06933997137577791,0.13365065093260214,0.0779216942702749,0.6501941080265096,-0.07816530007137897
282,-2.7454055592596273e-05,-0.07359307359259613,0.46164317865068866,-0.06493519600905465,0.06190853551369671,0.08847647633836754,0.8678331917555544,-0.07154614450109914,0.13424360638250585,0.07792213415848322,0.6564681805636636,-0.08273037023593241
283,-2.805792224235138e-06,-0.0735930735301663,0.46975573549272875,-0.06493487179213275,0.07999665985709871,0.09129873032951359,0.8763333275049463,-0.07392807542627686,0.1342216076572109,0.07792948713068668,0.6647794783195311,-0.08179374275458431
284,2.2642615260813547e-05,-0.0735930741077968,0.47604213665018025,-0.06493405219063764,0.07741377635743017,0.09083352635097175,0.8807681437503418,-0.07353578697887711,0.13401513286902686,0.07786145394579382,0.6746528496170908,-0.08430450863206632
285,-2.3454456413042135e-05,-0.07359307067911967,0.47618921095575567,-0.06494707065095294,0.07803302548503713,0.09092039164051897,0.8855657558080323,-0.07360267893596228,0.1355109515271651,0.07826528273415766,0.6842755766381622,-0.08694455769235877
286,-0.0002976713660280308,-0.07359308725065725,0.4812085870166401,-0.06485789705246563,0.07788433788588471,0.09090832062289546,0.8911112379972961,-0.07360073195953212,0.13908614757773358,0.07579668668991726,0.6896451157209886,-0.08651177099489517
287,-0.004769350930062372,-0.07359301840762482,0.48489276061195247,-0.06533140912274302,0.07796322966866745,0.09090875313329337,0.891343162211777,-0.07345358112509848,0.13797335984769862,0.07323639391417952,0.6987310286592007,-0.08658963902848851
288,-0.003961774662033853,-0.07359326208360231,0.4863852555434664,-0.06258499609609205,0.07802295559863552,0.09091017737047152,0.9001787254044061,-0.07466223120010425,0.14185478408486354,0.07365995925039312,0.7032505786202294,-0.08657966818077932
289,-0.006018593802395313,-0.0735925971386425,0.48877247032441534,-0.06073930171143578,0.08322434129814588,0.09090314231253521,0.9047374350367737,-0.07838709957441761,0.1430430020318873,0.07357904718047631,0.7071619759363642,-0.08657978683561944
290,-0.01175325421487139,-0.07359325902121822,0.4944978018055926,-0.05727748753352068,0.08691253173002361,0.09093838505818985,0.9059722591540108,-0.07781152272533852,0.14287956098205967,0.07359540118322286,0.7191014788639394,-0.08658023004594395
291,-0.013162524717836126,-0.07360132282017347,0.49795588228919596,-0.056277821959275214,0.08649034081075468,0.09078508485290532,0.9168072698951515,-0.07793632293238908,0.147391536119967,0.07368978127100057,0.7268087310017654,-0.08658004203857912
292,-0.012965683573074115,-0.0735230804382478,0.50148401812463,-0.05224944708607726,0.08660033908869391,0.09135681305512265,0.924769250157216,-0.07794867955594678,0.14784628470612088,0.07271770968339744,0.7312933676600232,-0.08658009584495814
293,-0.012986921309264815,-0.07399493148061702,0.502242593502765,-0.04300232320483527,0.08657683096601605,0.08716737736650483,0.9265340691367577,-0.07785359475298716,0.1538356302868348,0.06879832116401105,0.7361341030770455,-0.08658009392079268
294,-0.012982220334326494,-0.07119772443409547,0.5024345525656084,-0.043155146466421955,0.08657896460575747,0.08654540562403404,0.9267176255091073,-0.07787928307405202,0.15562596005854157,0.06938249946711023,0.7419999907700598,-0.08658005202748315
295,-0.01303301709543919,-0.07113120364582796,0.5065067679484233,-0.03594184468454973,0.08658149049974247,0.08656619257818242,0.9228424856764565,-0.0733947950965101,0.15906340986164208,0.06923808900820978,0.7491273085277287,-0.08658018111890077
296,-0.012729733289618543,-0.07731236641183092,0.5087933207604385,-0.030301158304358106,0.08660313882325127,0.08658744599403151,0.9178884698430594,-0.07292608815685826,0.15973487175963927,0.06926884067510536,0.7525098238526934,-0.0865800008856992
297,-0.014780182880700769,-0.07778459389079187,0.516212687947258,-0.0257712114776506,0.08636568685579342,0.08657771869645635,0.913244229426728,-0.06745308511647367,0.16837700473240544,0.06926344967597711,0.7581916242112139,-0.08657885111269456
298,-0.02072336146572394,-0.08214755157768812,0.5144616777392279,-0.021332999954511583,0.08805535567911434,0.08658067012295974,0.9134918732924372,-0.06290194208333781,0.1731810111209077,0.06926407398121234,0.7596742871554858,-0.08659175757184079
299,-0.021313281474653018,-0.08675249349696536,0.5182488138998441,-0.01858389454614461,0.09142956122673838,0.08658012038927852,0.9132943066778982,-0.05741664770928117,0.17387763426499414,0.06926372170956362,0.7694858452173361,-0.0865105395028053
300,-0.025847364578027,-0.08650002783370628,0.5195567060974136,-0.01378967854583027,0.09047570614100729,0.08657948695357809,0.9006421673738361,-0.05643313837271877,0.1781297894283709,0.06926733583986794,0.7706723317969666,-0.0869164179477521
301,-0.021423712216824688,-0.08661682456285283,0.5196868045505546,-0.004485169582120641,0.09397265933067023,0.08658182322953753,0.8902301903020081,-0.0525975994342718,0.17658579070911373,0.0692449795808413,0.7708896657903187,-0.08427295275555806
302,-0.016500015164976716,-0.08651317145941288,0.5150954729816611,0.00011048389884071772,0.09931981370553429,0.08657815411891444,0.8925653161075282,-0.04764541506785353,0.18173304961851153,0.06935523104336896,0.7745239669047468,-0.07917297373770543
303,-0.01263278836041874,-0.08683117092786047,0.5148424770947319,-5.0419501240459586e-05,0.09955252532327594,0.08656027521637805,0.8876992370376191,-0.04308074254857419,0.1716504465092433,0.06888936088271701,0.7799617056893471,-0.07402112394179043
304,-0.01300290728529109,-0.08570717720102813,0.5095492163733387,4.854733122441502e-06,0.09958708041835695,0.08677881599783935,0.8876452057499583,-0.04337929524086731,0.16880312329781572,0.07223126075732701,0.7942804826353025,-0.07357459449847954
305,-0.01333821595468622,-0.09422447568828848,0.5048613224314551,5.437508199620911e-05,0.09954113209031505,0.08520572033833411,0.8735574214745899,-0.04326283180392086,0.16445386210769644,0.0772349036181525,0.7908305282339294,-0.07358614289424427
306,-0.010187648349274518,-0.09527738664158676,0.4999749226847571,-0.00025273674815612336,0.09967279063345112,0.08191169393733778,0.8693698589830575,-0.043297811798468,0.16368078650442378,0.08219302510068599,0.7988212461306791,-0.07354520637252018
307,-0.005220431179779404,-0.0952706721659409,0.4951261701969366,-0.0014922866748771461,0.0991092622023781,0.08188748832442348,0.8645399581250433,-0.04328488648923373,0.153628160069077,0.0822186055930997,0.800817164246342,-0.07391331280273317
308,-2.9646068294183602e-05,-0.09522176082234468,0.49032798626384133,-0.04524247170129906,0.10267605764644164,0.08546968366274636,0.8575355731664368,-0.04330298436621948,0.15208605374215897,0.08212450966462764,0.8050678550706953,-0.07158683823488816
309,0.0006190279400209879,-0.09524902959822022,0.48534631094318437,-0.08043856000742446,0.10405735648831685,0.08672340621065934,0.8495237254791697,-0.04325642473954779,0.14662394082945235,0.08330864373897046,0.8051102288575352,-0.0688899528010351
310,0.014966646988039596,-0.09520720148055997,0.4806605069836172,-0.11656892528771731,0.10388609185613087,0.0865731070011431,0.8466449900432916,-0.04331733287715823,0.14215975325218025,0.08905304625746305,0.8054379890066301,-0.06933447124185316
311,0.017036547800659732,-0.09536130646560384,0.47149822079511355,-0.2117613265262133,0.1038922583735438,0.08657546069237662,0.8294280205591342,-0.04375793460501434,0.1432770015120559,0.09114860913641712,0.8037335028765186,-0.069254140664778
312,0.01952195632152454,-0.09480371505505548,0.47156893316066256,-0.2198543396404663,0.10389812542610272,0.08658601460642347,0.8183303135903478,-0.05418950862140786,0.13862039283881583,0.09097565726644039,0.8008280306534459,-0.0692645361721151
313,0.021066490439396967,-0.09901496279740635,0.46480129973223994,-0.2923198049550663,0.10389546333632814,0.08655630413204604,0.8133887615860053,-0.062300815607898075,0.13856729977751142,0.09059501976548084,0.7983540302009519,-0.0692644002194955
314,0.028238770246495865,-0.09960898466121813,0.4548462353437651,-0.3112783667985755,0.10389626510857561,0.08669236269885891,0.8015561321375972,-0.06733763929618097,0.13869261750098372,0.09514261945176358,0.7945044333888504,-0.06926362651785849
315,0.030348671360016757,-0.09979088264368663,0.44523146272210756,-0.3436049135028955,0.10389608073011125,0.08611469662565924,0.7842471454032057,-0.06896991410922505,0.1371781562719007,0.09518075139150904,0.7775192217188456,-0.06926589113362067
316,0.034548924721454086,-0.10508771077142304,0.43549121221987197,-0.3664418471457026,0.10389606815825224,0.08984394843220114,0.7605663877569669,-0.07448502556227514,0.13251474530279825,0.09526828546868833,0.7662828377665791,-0.06925545047562619
317,0.03903633166136526,-0.10839453351443748,0.42590987975370087,-0.4021809239833626,0.10389620253891432,0.09104413925367554,0.7377989809471611,-0.08890356977152229,0.12363763015413883,0.09521692779412903,0.7601242152959995,-0.06929985931908746
318,0.039829853826308215,-0.10940200385477082,0.41600790983013575,-0.4674555071442787,0.10389614090079906,0.09090349192640577,0.729449066507119,-0.09925652025994901,0.12164379936875154,0.0952999849130009,0.7382839346203518,-0.06913745361887803
319,0.043599773004523064,-0.11768744649192092,0.41101571118192803,-0.49355590808063654,0.10389371693112497,0.09090485370208232,0.7215776631716556,-0.10391074117847023,0.11316086788447692,0.09498858582903849,0.7306602737036414,-0.06960852657980764
320,0.04456860757338827,-0.12498021857240295,0.3996104533352086,-0.500678365342685,0.10391445660159543,0.09091010458975889,0.6890102504759076,-0.10500396479920925,0.11259052258742222,0.09768829787409891,0.7148844865240735,-0.06500546756671269
321,0.05334603792959991,-0.12538089172351308,0.3830968152864826,-0.5401497191518388,0.10379588691581498,0.09091462470921345,0.6785551144186318,-0.1153312768723915,0.10598232453269685,0.106909233725943,0.7127589570529766,-0.06469945170622482
322,0.059679037925702706,-0.12964199718814273,0.3773372243913941,-0.5557753645194202,0.10434757306602944,0.09087955018609241,0.6595043613388352,-0.12649604509102794,0.09395382451256432,0.11249310297816185,0.6989048885329695,-0.06018486394239655
323,0.06469307144336738,-0.13430493885371356,0.35713458088539957,-0.5917131152101281,0.10087585061391968,0.09103154036925142,0.6509516771494865,-0.1419519780894857,0.09588460622793463,0.11254429258046836,0.6693089199686181,-0.060739037055410575
324,0.06497294769394034,-0.13454436218858634,0.3506280269648024,-0.6248256635327176,0.09938753520300062,0.09048147200752449,0.6279587040816239,-0.1536169315583914,0.09295720443900986,0.11237871410084879,0.6581759524116224,-0.06057159673893302
325,0.07006474968323677,-0.14134232521383572,0.34156590218034844,-0.6342420195317118,0.09958113340825794,0.09471908501455993,0.6088962332404897,-0.15977547072603607,0.08776047128966474,0.11386979957905081,0.6395742505050687,-0.06061331526561026
326,0.07443244393578122,-0.14990706326243894,0.3254503454096847,-0.678683126496421,0.09956917867119461,0.09526958549043046,0.5944677701871461,-0.1636872239141254,0.08293724858257855,0.11733782947750462,0.6263244854905866,-0.06060631013695177
327,0.08192398690499941,-0.1517201660621607,0.3202410032032721,-0.6943838535830592,0.09957813523889043,0.0955824459594517,0.5762373552520361,-0.18232156074402134,0.07797650250028504,0.11677967500907326,0.6031293857247902,-0.06060160570308934
328,0.0864950919969703,-0.1514837675819181,0.3011731347780451,-0.7498976110130051,0.09948472658318513,0.1000190221027229,0.5762971407755365,-0.18891135474510845,0.07258368217680088,0.11690365110896524,0.5935861174016396,-0.060610638215861025
329,0.09215909060678393,-0.15149662262883792,0.2932291016908831,-0.7581481618149135,0.09998090752538291,0.09911912619338527,0.5438528258571185,-0.2127965292170007,0.06443234892101546,0.11687840248576507,0.5630307066996001,-0.06066386607824154
330,0.09887796913390726,-0.15154671597588154,0.27766584563124874,-0.7845281595994767,0.09691945596755777,0.10163599673446137,0.5392140870802701,-0.22649555809378166,0.06346264235588941,0.11688560502375041,0.5429851444434034,-0.06004802026617129
331,0.10370384623887928,-0.1517526033484278,0.2604933642144754,-0.8547744650658659,0.09498326072297562,0.10437811141827118,0.5155384988474297,-0.2386188693728454,0.06060536326797069,0.11690010874476167,0.5378419339028969,-0.06447394969979268
332,0.10382567174760995,-0.15622009024666517,0.25673500662688187,-0.9091930103067619,0.09527113219939033,0.10339799827642938,0.4837915218081996,-0.2707157960177312,0.057626737477278145,0.11670009041996246,0.5238230371197783,-0.07651781599400165
333,0.10439834795474696,-0.1557212118726186,0.2564667677784836,-0.9546504987861073,0.09523762340628988,0.10775888673815814,0.4687437427490945,-0.2898389328936875,0.05645001099307535,0.11816913466607996,0.5181953641325842,-0.08063692115389594
334,0.11010123378665275,-0.15587674645808322,0.24139725032366488,-0.9847099288396899,0.09523671451724254,0.1082367535245089,0.4582855961612299,-0.2935700169521183,0.05220359421893975,0.1216656362895159,0.49675306383732026,-0.08246820734556085
335,0.11208305020484041,-0.15583724446053218,0.22122536967279788,-1.0658090389309345,0.09523859348899644,0.1082357707289351,0.44783725448082956,-0.3077548464393952,0.05202271456121764,0.12111723745029274,0.47241773972091416,-0.08230821167517131
336,0.11760201523622862,-0.1558434818643635,0.2114110638316619,-1.0935278008036313,0.0952384188493062,0.10827566089417133,0.4250210397389752,-0.31791771132796487,0.05145274898892682,0.12119778035602351,0.46230441906993397,-0.08215974225704656
337,0.12186250387548192,-0.1558501198376935,0.19485702070976446,-1.1537778429909635,0.09523584783914238,0.10789045149823481,0.4004028009556139,-0.33129346414332334,0.04555537776677798,0.12130952373548133,0.4598093506194319,-0.08671881036757947
338,0.12087815909966013,-0.15583522222310528,0.17307188120037134,-1.198207198567099,0.09524701525206822,0.11032131936932923,0.37896253719861966,-0.3332760815135006,0.04450432125935523,0.12106695253949719,0.4399202744673264,-0.08724386002802935
339,0.1253932508225996,-0.15579203552821927,0.16765165207929622,-1.2419697076030434,0.09520999256214889,0.11291375225914176,0.3741604517317811,-0.334788526070015,0.03317372014781503,0.12565324694379168,0.4348602180542286,-0.09149085747843745
340,0.13027325095832354,-0.15647814594595197,0.1573085122093167,-1.2834406268462666,0.09529123462498279,0.11248813393986751,0.3646201959251571,-0.3435239232439771,0.021647946003069934,0.12612966921207241,0.39351977225517665,-0.0903637103002758
341,0.13534784455241372,-0.16096622586456308,0.1459690772057365,-1.3476900388308117,0.09538055407346109,0.11256423553430762,0.33127725576743355,-0.34967766825947705,0.021654588733476345,0.13035950598500498,0.36651323535878655,-0.09356622037642469
342,0.13897660172660023,-0.15798926744444478,0.13163075347131153,-1.381136122678662,0.09991898505301361,0.11255338496389938,0.30752834798954415,-0.35799644590658103,0.021645027615989236,0.12973873587590493,0.3545530297090024,-0.09549611522779339
343,0.13803951015048865,-0.15630678804833556,0.13000514433037683,-1.4096075488951276,0.09944526730378828,0.11252546811377868,0.3042632489453846,-0.37243446151718657,0.02165244601741918,0.12990005121368223,0.3307760378193326,-0.0952072425477565
344,0.14117817865561,-0.15001795130253506,0.12084708223035091,-1.4242962104599286,0.09959996473995715,0.11279304948461719,0.2906414752351617,-0.37744192170963364,0.021582424314361432,0.12986583368068064,0.3082580222276466,-0.0952335907071667
345,0.14354019223484193,-0.14351550345368064,0.11087650302575834,-1.4611804471741519,0.09955947762019748,0.11097491601946284,0.26608626961580556,-0.38783223865520844,0.021991531451863486,0.12986606749859864,0.29487176095403633,-0.09516369031248773
346,0.13883003591067192,-0.1387039375097119,0.09549367833833587,-1.4994148222826105,0.09956912116554757,0.10820918517671033,0.24507428724926442,-0.3964564067777202,0.019398931362676505,0.12987792612551252,0.2908702163331082,-0.09601748809668381
347,0.13851297979651134,-0.13861738512226918,0.08399211287689963,-1.4958672275907787,0.09956523102794035,0.10558959544235243,0.23827179252071237,-0.4116471713379707,0.016551404919072383,0.12990655683386784,0.28694839640245184,-0.100029898796368
348,0.13388786942899833,-0.1378152832305628,0.08097249037505502,-1.4547844831738526,0.09956847707145439,0.10352687640229664,0.22808226101810797,-0.425046278118103,0.021014939112679355,0.12938743756364257,0.2635931486687156,-0.09944640360973728
349,0.13432255667168275,-0.13396746244752825,0.06987291119510944,-1.435385708858656,0.09959089719440134,0.10421038903094171,0.21229841865562343,-0.44200254881159157,0.02168657435028097,0.12383422975499143,0.2440170602603971,-0.0995941835006847
350,0.13416356877195654,-0.13287639224317394,0.05796619674955787,-1.4074298125934777,0.09934810467871522,0.09958010083731035,0.19762682247607222,-0.45021592814293293,0.0216527939420425,0.1210606671782866,0.2182297476547207,-0.09956196962850385
351,0.13420716369803012,-0.12701148963070863,0.05206688632627966,-1.3742058488151874,0.1010678383137907,0.09963487292188258,0.1790918560733617,-0.4502153459920388,0.021690125919837423,0.11973439675506488,0.19980673586748818,-0.09956783276502679
352,0.1341997056067393,-0.12520052023519432,0.05199155418382564,-1.3588619797401207,0.10433272574498181,0.09955411378249186,0.1778995901275415,-0.45002770415418364,0.02132296135693128,0.1104328145412945,0.18522570556200657,-0.09956706160420264
353,0.13419206773189776,-0.12596080442326363,0.03711314966875275,-1.338207151641552,0.10379553145833631,0.09948313214859526,0.14984994509003843,-0.44371268201846026,0.023712462000010894,0.10784510318388663,0.1760263278167279,-0.09956707759647937
354,0.13421318310452338,-0.12138701712599001,0.025159376570081764,-1.3082552275593122,0.10394096471438966,0.09999827703721038,0.14052101808330775,-0.4362365494500791,0.026331487763812732,0.10838607584839678,0.17643300127368552,-0.09956712175728394
355,0.1342338018220257,-0.1211272709550881,0.0256639741202999,-1.2793541172140188,0.1038318728874026,0.09677794824493144,0.1276439493551915,-0.43780755537220434,0.02590971447729682,0.10364497189254963,0.14900332634604066,-0.09956702491411033
356,0.13360338673633426,-0.11587725856153935,0.015853272983226776,-1.2580553086877306,0.10381060649691427,0.09499736139450657,0.12225014472868098,-0.4165722445983043,0.025986033671044358,0.09863685283962792,0.1428292718639643,-0.09956744814075381
357,0.12934219680583925,-0.11225401598994092,0.002775573383766739,-1.2529505179244962,0.09923919552867029,0.09528630577474458,0.11115272916312242,-0.40242244865346943,0.025978191628725278,0.09516227872197736,0.1376157536207848,-0.09956564671692868
358,0.13038813812683694,-0.1125313067238509,-0.0031972819952845654,-1.2221986132679503,0.09968682170407031,0.09523871941062251,0.10539230851678928,-0.39935182898834637,0.02583794374523758,0.09353467723108923,0.13370809351295865,-0.09957226987174944
359,0.12735217546817254,-0.11301740097272453,-0.007891351144271348,-1.184661903046036,0.09953395454945144,0.09482513531144134,0.09651110761258708,-0.3897865780914982,0.027082771178826927,0.09051553840940278,0.12369772559925947,-0.09955285976169292
360,0.12525868874784013,-0.10940585948845541,-0.012752875911481516,-1.135273685414188,0.09957479879758732,0.09044531729640595,0.09103740357316278,-0.3794673645863472,0.03077343708107457,0.09086602757518968,0.11847933074673225,-0.09958218513805567
361,0.12558466850465672,-0.10836307116045822,-0.01758167705891371,-1.114421981937455,0.09956560313138375,0.09127088353941797,0.08619958870221342,-0.35312847196952746,0.030160389424696652,0.09128945376062057,0.09897966331780851,-0.09973464984446782
362,0.1255362001022453,-0.1042460841352969,-0.022667305622738367,-1.0514688124403921,0.09956732050659807,0.08922608849516311,0.08113720984728483,-0.32771359293367514,0.030453952134830913,0.08678142383813481,0.0900739553813847,-0.09778593480225217
363,0.1255218699793258,-0.09923605964703756,-0.025754647766556147,-1.0216143915961502,0.0995670856382228,0.08304594816782035,0.07780827565726124,-0.31473818021546246,0.02993134828619519,0.08651102703663223,0.08702761243723674,-0.08143840739266917
364,0.12573583014189246,-0.0896612160309201,-0.02945279378789681,-1.0030374725384537,0.09956708896000216,0.08333564942443748,0.07635115916861179,-0.2989582999744431,0.03454445887779885,0.08124616453032209,0.08190699687048042,-0.07070823059627378
365,0.12417370020809815,-0.08656685096638805,-0.03535472386466924,-0.9222370066104991,0.09956715671950686,0.07044826971243452,0.07100949024865194,-0.29070037317595404,0.03487657605858967,0.0778802248991684,0.07292254122582126,-0.06787727839813436
366,0.12076452139166703,-0.08519527536510364,-0.03491981831624187,-0.8970433476994584,0.09956676715995738,0.06927701576605637,0.06596202208985877,-0.2869903458672613,0.039378844814421256,0.07625179000269919,0.07409215692739773,-0.05504901466880159
367,0.12131013357807262,-0.07976703318811627,-0.031126497305118704,-0.8440820474248147,0.09956870667625779,0.06931636556555888,0.06449707809195353,-0.2733730385419862,0.03891807899973857,0.07316522629420792,0.07175865777661218,-0.05146317932789974
368,0.12119646129117163,-0.07514534839192889,-0.03021620878929972,-0.7954238947067269,0.09956052734077588,0.06832105354492284,0.06915625729505434,-0.25901934285468786,0.038560981725686054,0.07367104092358259,0.06881744565664004,-0.0520640274179476
369,0.12120847890337572,-0.06985859099536743,-0.030299147953667,-0.7581620605608154,0.09958931174592695,0.06445465686233312,0.06914026702313965,-0.25577277005254856,0.041790464404769696,0.07360822376278559,0.06955428624196476,-0.04742379367673154
370,0.12121404386750073,-0.06920627143474599,-0.03030664667180454,-0.7173672211341565,0.09951494897915124,0.06508144032302243,0.07004473522872172,-0.25186847464532675,0.04351595707847285,0.07353797527255587,0.06635087773900782,-0.047717563526752126
371,0.1213206576624916,-0.06924962308966653,-0.030317663095878362,-0.6989452279153986,0.09954414429865746,0.0647942992115323,0.07413814428970157,-0.23939760187131298,0.043246316654748346,0.07346488428603715,0.056638597583065706,-0.0475876304823869
372,0.1202338644810965,-0.0694159892078113,-0.03021149193791094,-0.6582575029028773,0.09445484911893301,0.06532195036707956,0.07302839045587363,-0.2361658134767841,0.04324974537893374,0.06907830243435678,0.05634531112452613,-0.04762727210127211
373,0.11667470874504049,-0.06814853988053071,-0.03072748108285081,-0.6012441044475965,0.090589081478903,0.061042294147595176,0.07636511469976412,-0.22819350851731038,0.04408000516996534,0.06827081959981494,0.05621960654881733,-0.047617172540492185
374,0.11522560534125721,-0.0644708829795895,-0.02758290788499452,-0.5586278947958708,0.09099977586631428,0.06064833756691439,0.07770790368331398,-0.21733575814447956,0.046590675707379126,0.0644302570501882,0.0563760656517707,-0.047619490471923466
375,0.10932783570536832,-0.06504816198942281,-0.02560423320484474,-0.5158099583886312,0.09088974299521052,0.06520709719801368,0.08174957689224836,-0.2165796854301034,0.04456877580276298,0.06508634860494242,0.05584680581608607,-0.0476187446134026
376,0.10806531213113027,-0.06490355441932778,-0.02633405259190025,-0.4673432868003713,0.09090457476918402,0.06482815295507885,0.08217892990077022,-0.2070427927068016,0.048139499606400175,0.06478679185171574,0.05889486791629977,-0.0476193269523116
377,0.10825781710068465,-0.06496644038552249,-0.021698888425628473,-0.4248072947907825,0.09093503705385053,0.06496615979068651,0.08672791424665735,-0.19264417238929032,0.04752129349467248,0.0653289946490831,0.06044207542875605,-0.04762194028912119
378,0.10824723079055772,-0.06487896746773092,-0.021404380770999782,-0.41936422606006296,0.0908671097183392,0.06492743630887594,0.08723429423826086,-0.1763000467210352,0.047632665185233826,0.06089050528244083,0.06425077411985468,-0.04759016392635396
379,0.10769598183081053,-0.06483886115551575,-0.01691409645837998,-0.35958723987609026,0.09070123563918725,0.06493667100954029,0.09140673103729254,-0.16115578451682305,0.047618407425362344,0.060629334376500726,0.064983337202175,-0.047794274754902326
380,0.10337548612571978,-0.06025616972004806,-0.017366465684487565,-0.3220612717972213,0.08620601905552007,0.06493478805668501,0.09077884092759174,-0.16013213907785612,0.04761351398129593,0.06058295013643749,0.06494928568699596,-0.04676241482518847
381,0.10443020213065443,-0.06091703605609626,-0.017679622513514823,-0.2984980258580352,0.08669757121061301,0.06493509669723498,0.09093815325002276,-0.15887542601477692,0.047664288598843516,0.060614460251105264,0.06491457967661658,-0.05295802181411791
382,0.10134102827718033,-0.05926131505102962,-0.014832624028470406,-0.2839999446576136,0.08657752935068183,0.06493506625416708,0.09090455205607208,-0.1416535834836488,0.047359188748161536,0.06060403407160309,0.0650187046012648,-0.05637219607980967
383,0.0997281605596323,-0.053548541152093135,-0.012567238689242113,-0.2554152728470153,0.08646253115679785,0.06493505721862532,0.09090698508972168,-0.13424020791708546,0.049425469154278104,0.06060499213568778,0.06452923611144004,-0.05996679288861406
384,0.09597142600500508,-0.05170948702239129,-0.01341635435611646,-0.20415936444562754,0.08701366769352621,0.0649351083546454,0.09091229128617552,-0.12942497650185625,0.055198626601854504,0.06061229121132591,0.06748737730678897,-0.06064053750790226
385,0.09518264679422093,-0.05198834190845341,-0.008839546108866007,-0.17782536444849678,0.0827172754043054,0.06493483303771344,0.09094199914375833,-0.11599231149397471,0.056428461479477554,0.06058580250795166,0.06955127075050432,-0.06062412049032644
386,0.09522577283077427,-0.051943646714592506,-0.008588335833724701,-0.17040951399894025,0.08224571590068804,0.06493611746820774,0.09057817790174925,-0.11707022922596315,0.056250458941737656,0.060648896942883036,0.0691975755416616,-0.06058361893504937
387,0.09524578228636663,-0.051947714408501044,-0.0033495016088672426,-0.13870524746628468,0.08223150722779955,0.06493095618924513,0.09324964464183927,-0.10581048553739318,0.05623170070567284,0.060660021312934666,0.06929804805745039,-0.06069347443149006
388,0.09523509094991266,-0.05195018785829667,2.9247792459444365e-05,-0.11522759128709949,0.082259270416853,0.06494834262424262,0.10255547312849927,-0.08986794639081513,0.056944704784546975,0.06579465921611216,0.06953494853615054,-0.060190860112332926
389,0.09524113332093168,-0.051934823154560945,0.0016947540240229108,-0.09732581058032833,0.08224867642311535,0.06490632594142846,0.10357324704836211,-0.0807638360691941,0.061068125475024014,0.06931449596785996,0.07384094777741361,-0.06321583486241304
390,0.09522792474212236,-0.05201837435568576,0.004333880459830802,-0.06887040033192582,0.08225166751495418,0.06490460605475808,0.10720366319650795,-0.07434647182156383,0.06046380867223037,0.07116554483961912,0.07446723908833967,-0.06518276873447877
391,0.0952738415996406,-0.05163077285897518,0.007097148217429241,-0.057579081153758566,0.08225096211654782,0.059280130843631124,0.1080257051472715,-0.06979605407284939,0.06072176817064784,0.08715628469951166,0.08049439661133133,-0.06495905625773592
392,0.09514172539653921,-0.05435553045010314,0.009002319016476443,-0.02395141204208179,0.08225110195254115,0.05116525325846328,0.11245246219189509,-0.06490721181666408,0.060290528351675476,0.1016745668563236,0.08202369777869271,-0.06486579779852085
393,0.09531583997475991,-0.06008929113605628,0.008370462376359059,-0.009794461759540216,0.08225108006651895,0.04076923254623089,0.11271209112116574,-0.06462123620018954,0.06415724516463812,0.10777734094322902,0.08555026285156735,-0.06975512900914023
394,0.09082370093106822,-0.06042496060134262,0.012993478359468626,0.0018614109155513697,0.08225108096612345,0.02855219940077667,0.1178652787424523,-0.05933335459603419,0.0692589063086322,0.10792543142058719,0.08641092068165832,-0.07366757602364166
395,0.08953383108585118,-0.06498169791326512,0.012908835394131093,0.031536353504268824,0.08225109866204536,0.03113646175829234,0.12287651482140008,-0.05471345333461637,0.06964320760806592,0.11708416062895795,0.09080304963789776,-0.07492937746617921
396,0.0797255588991083,-0.06508912784586827,0.013080140917243388,0.05544299637204107,0.0822509733238135,0.026624203832570893,0.1259068424551697,-0.04938279529646234,0.0740275911441994,0.12639282749018857,0.09076127773007232,-0.07795361386783511
397,0.07815797491037814,-0.07169067170558761,0.012617802230871895,0.08185610023153858,0.08225163899995744,0.026117730690612913,0.1254591793082027,-0.04737414441513964,0.07356765436101499,0.13071624868374138,0.0917984598501268,-0.08054715011407815
398,0.07517994580883453,-0.07933285822874572,0.015162675973365318,0.0996062375988682,0.08224869747862162,0.02155919902231912,0.12555463638984193,-0.04758662374409654,0.07314222150449992,0.13745059230501158,0.09536745658928247,-0.08206581351710505
399,0.07335541114590693,-0.08881868211211515,0.0172207618313337,0.10057500879253475,0.08225964387579755,0.021864960025149077,0.1255451086300174,-0.04780684164280142,0.07672264507922652,0.14586808384034763,0.09715212967308474,-0.08605902246391718
400,0.07362128586471388,-0.09889026573354762,0.02049200808762131,0.1362560870904294,0.08222792763459572,0.020688098727447816,0.12553404739105467,-0.04329456218698066,0.07773045329088374,0.14732841830940532,0.09996207456893702,-0.08651151855461674
401,0.07359371580571274,-0.10213612938732658,0.021806715818088764,0.13725972026020397,0.08226909604713464,0.027733522220999136,0.12547218327310583,-0.038842384809385525,0.08204834392696556,0.14726709922501013,0.09949385661298499,-0.09112482314055859
402,0.07358911668674044,-0.11522389969555219,0.021626792156021802,0.15431616011789026,0.0825934033911979,0.04489783813908271,0.12628294308616206,-0.03836129090677214,0.08220114226781687,0.1469347177551898,0.0995774174784005,-0.09079423884347324
403,0.07361181902009341,-0.12998929308517654,0.021574343668469727,0.16142349585699023,0.086991581365873,0.05062204054063782,0.13041554641306455,-0.032651955627837854,0.08228047238931602,0.15154536693445766,0.09956651325508219,-0.09096729239445328
404,0.07349385765095152,-0.1400060430368994,0.022388754239841747,0.17484317326546797,0.08645508980635835,0.05705395604961219,0.1293368150462297,-0.029987149472518362,0.08224153589944175,0.15154269503546028,0.09956026765263329,-0.09078929101095554
405,0.07404155314809643,-0.1550606341941709,0.026132437277858477,0.18125971849583633,0.08661121488392144,0.09103221922732255,0.13249332437914765,-0.03037154758697564,0.082253550449199,0.1506649584798245,0.0996248072426003,-0.09137516152807328
406,0.07062348064207884,-0.16891416214475483,0.027685690970846766,0.18134499788054553,0.08657353631650237,0.13938403304798394,0.13446359692671334,-0.030292802440887376,0.0822505380997416,0.14591962390068003,0.09923188844889595,-0.08770043476360065
407,0.06907146672668062,-0.17289950383499902,0.030702801900707528,0.1900067817978285,0.08658119519292533,0.15501563505655716,0.1341667303756709,-0.030298130881870142,0.0822512074304432,0.13722615815778763,0.10165765227520913,-0.08643412375382069
408,0.06928202119281572,-0.17862061040947114,0.030338047584813992,0.1948370445944616,0.08657996905831065,0.20760944138135454,0.13419390102080486,-0.03030749444281525,0.08225099879551347,0.11935629958292264,0.10426444833222155,-0.08658668361903513
409,0.06926663381298957,-0.18444548840891734,0.0299342178006633,0.19519820049284986,0.08658007853538813,0.24687688789282067,0.13413049939370314,-0.030401116437764473,0.08225104313326431,0.09837137445173427,0.10380009255397873,-0.0865655058809896
410,0.06925917858379974,-0.19806934032778392,0.034351284380282454,0.2007425400871131,0.08658009535411573,0.2578799907593408,0.13495085855946415,-0.02937416527408874,0.08225292785597532,0.08545458115576927,0.10398208681867488,-0.08676637445293255
411,0.06928543415512566,-0.19913528793855131,0.0346107078740695,0.2035101046250813,0.08658008339217152,0.29002890779413737,0.13898900396180508,-0.026158344215704253,0.08223712366998179,0.043177418531676934,0.10387420765092112,-0.08526893777686342
412,0.06915736423836483,-0.2040556257491714,0.03465449228614775,0.20525343542628038,0.08658008746150385,0.2960435794516073,0.13840924868326338,-0.02208295492365373,0.08232650574562268,0.03802415813660711,0.10847925035878878,-0.08171761320052708
413,0.0697244824859003,-0.20955712184589967,0.03462365738278178,0.21058126836655072,0.08658008637148473,0.32679125795845543,0.13854536791408717,-0.016528375901754617,0.08191555565674609,0.024569279953493665,0.10817447745435062,-0.08269288004269987
414,0.06611320995995831,-0.2200778602072435,0.03463441732506964,0.21530320379313309,0.08658008663628329,0.33780051026878083,0.1385595061096123,-0.017496185629064805,0.08489959730700511,0.015361964839797102,0.10791258433937301,-0.07947343935807655
415,0.06478015399436435,-0.2277154319636654,0.034631598297396815,0.22010138156864875,0.08658008652676828,0.3421851076893054,0.13842637399760951,-0.017206052775343466,0.09042522395648761,0.002926684534810896,0.11037099550611379,-0.07402166463144386
416,0.06494421914910323,-0.2315846720355315,0.03463151948015345,0.22497837956405153,0.08658008663758188,0.34286382718399927,0.1386495447867103,-0.01742141458658371,0.09095711033593164,0.002350813823986586,0.11290522180136967,-0.07356898156926546
417,0.0649393417143971,-0.24049986290438677,0.03463419238669274,0.23006005864254767,0.08658008710192186,0.34784956929209376,0.13414055255571705,-0.012792656832236201,0.09112595915139363,-0.0036379349011613107,0.1124920365997327,-0.07358265453136989
418,0.0649292343044851,-0.24610651767159633,0.03462649704021906,0.2385741097157454,0.08658008120679392,0.35545831247815807,0.13280080781245607,-0.013102659355468683,0.09646473095538592,-0.004531606916722756,0.11256135345428492,-0.07359857937075039
419,0.06495893851625616,-0.25538769272668593,0.034634953267518954,0.23903549744845473,0.08658011923549645,0.36211512487399006,0.12460843964313609,-0.012866302294682904,0.09981988221584637,-0.004317037343830805,0.11255411176747532,-0.0735909074309878
420,0.06482190325847448,-0.264895060408059,0.034720099818345194,0.24302077661672594,0.08657992865102929,0.3726053610990137,0.1256823794365358,-0.013429663490006764,0.09991232294771103,-0.013853398012567112,0.11256189064662135,-0.07359557134264419
421,0.06540133374219119,-0.26850225369027175,0.033817181170467836,0.24197714811174692,0.08658073120265315,0.39720484771109804,0.12594790203570455,-0.01033277927580725,0.09677286926913842,-0.018089818138520897,0.1124898948114656,-0.07358439617801384
422,0.061608241187041085,-0.2801974331233248,0.029839473377636105,0.24482863035124422,0.0865779141000601,0.40306083964502776,0.12235131709121255,-0.008817840667146875,0.09501722648717603,-0.024387364414442905,0.11291193622500893,-0.07362389437305049
423,0.06048821579963677,-0.29960039610409805,0.030426129055561968,0.2504803921346493,0.08658514931202332,0.43608901732846417,0.12106291755560075,-0.005034862865889802,0.09525730512382144,-0.03528217900926146,0.1103299105898665,-0.07350662739112186
424,0.06060717555724407,-0.31091191911784655,0.030266567367369532,0.25092306356922056,0.08658266564681211,0.47931038146116367,0.12121911281473387,-0.004247899849178978,0.09523320887290594,-0.040773224439429455,0.10791945643945636,-0.0736969587362678
425,0.06061127825992682,-0.32249969010430785,0.030340697031173865,0.25531504563531154,0.08645288365727667,0.4960526394227434,0.12119799895146732,-0.004184283444366987,0.09538406842643646,-0.057368863951899836,0.10817391195668913,-0.06903231260887864
426,0.06060387913420584,-0.3327363371178333,0.03020791695003424,0.2603766643002178,0.08763779007290046,0.515966335661148,0.12139582377274481,0.0010430262923677382,0.09407198539713185,-0.09520299058844064,0.10846624579055404,-0.06974626421100955
427,0.060606705220533734,-0.3332958196186824,0.030452933562737296,0.26995444765406973,0.09137384067348886,0.5577925426625051,0.1199147280395534,0.004360256931897101,0.09044912791761522,-0.12531086388381948,0.10385313396331108,-0.06658411184015801
428,0.06060590220438162,-0.3486303356567888,0.02582940806098144,0.2721338915993499,0.09079884191054,0.5923780424925351,0.1163195213744504,0.006117792420478803,0.09101430563291672,-0.160761761675481,0.10397752719570819,-0.05973792270976249
429,0.060606093616980904,-0.364705863976982,0.026068315297605293,0.27777492542670623,0.09093106819998559,0.6395802488795448,0.11745047570218176,0.008748568173783562,0.09088916743105137,-0.19747079550080587,0.10386094452806105,-0.060685382852582445
430,0.060606055246241144,-0.36477859146168723,0.02593658397937653,0.28898697467690965,0.09090569562400115,0.7301951261059229,0.1136624746234072,0.011158872220806136,0.0909118574292631,-0.23920878416437877,0.10392623973284498,-0.06101319390434111
431,0.060606060762047075,-0.3681870714800357,0.026009837038918175,0.2926879922317098,0.0909093507235921,0.7621425154986687,0.11241985928188412,0.01676725550703359,0.09090898298550906,-0.30166285420504907,0.10379798089125487,-0.05686480504363514
432,0.060606059989542084,-0.37013477902587916,0.025853492225103712,0.29773359880430667,0.09090915337530474,0.7867458457567864,0.1125472562316677,0.01740144132197213,0.09090900058610447,-0.35530862768771865,0.10427021445218472,-0.0562411484028956
433,0.06060607482151526,-0.37579867255553795,0.026429063364158317,0.30251412253971915,0.09090905355049404,0.8272430713302117,0.11242041951249285,0.01741170127139432,0.09090913793620328,-0.41311001132786207,0.1006810618997507,-0.05624978869919405
434,0.060605959636327845,-0.3769461557774375,0.022499374231119626,0.3073348370876478,0.09090910316375857,0.8830732325748424,0.10654709136408293,0.02252517024382179,0.09090904379569956,-0.4499454045398349,0.09569585204825495,-0.05642250028102479
435,0.06060659330363458,-0.37237452798282283,0.021489787817982012,0.3121315796859718,0.09090908770529368,0.8958462448593566,0.09744855669876337,0.02637624090619131,0.09090925686936567,-0.48002248602027386,0.09085178089809365,-0.05526862536561293
436,0.06060371042864537,-0.36750443202786803,0.021606397416349073,0.31714748534130544,0.09090909161663964,0.9384587496073866,0.09501875339172042,0.02548423800508195,0.09090844798558041,-0.5125908621084889,0.09094102673050329,-0.049553966334681565
437,0.06061485794278668,-0.3626904596440492,0.017047266375378598,0.3207683485284618,0.0909090907804355,0.9436646483722182,0.09519282263568049,0.028418994648342605,0.09091112834477569,-0.5229366424049062,0.09114594501115672,-0.047337975212789055
438,0.06057996448575665,-0.3574189830397751,0.01735072195845623,0.33267488546823054,0.09090909092555284,0.9622996204094738,0.09558910406794907,0.03024994129563613,0.09090521501160838,-0.5394665721342249,0.08922492990538858,-0.04767304174311662
439,0.06064575702175851,-0.3550514014720335,0.01770295568094821,0.3431394992129484,0.09090909090893799,0.9803041314778304,0.0917353703808989,0.033469220442024245,0.09089871710739723,-0.5447891423625609,0.08615312966982785,-0.04761108877717488
440,0.0608192990528936,-0.3523640950561838,0.014865001604311813,0.3443642973286406,0.09090909090834512,0.9899031725993728,0.08679493368746014,0.038504088596994654,0.09107433850764267,-0.5532690334107944,0.08670118504481003,-0.04761956577602219
441,0.06530827792270803,-0.3503802849738237,0.01402502375013369,0.34974951312257724,0.090909090909562,0.9972434889759588,0.08216341181213238,0.043340713843467306,0.08965836571114878,-0.5540325653505558,0.08645452682842915,-0.04761948692860119
442,0.06481763491598455,-0.3506879055395379,0.0031551482492123838,0.3546637980622319,0.09090909090804895,1.006915872682892,0.08159582771939107,0.04309669660187984,0.08612477678671082,-0.5572944194756829,0.08679910312257247,-0.04761637025144831
443,0.06493858708802143,-0.35064669555273453,-0.0003903423648403395,0.3594173587565524,0.09090909091349356,1.0192609494050628,0.07742870226573553,0.04433416273284283,0.08668418915183729,-0.5669912712777265,0.08218015413497136,-0.04763493319657445
444,0.06504983017948511,-0.35062465889264866,-1.4113836825173885e-06,0.37300158749226614,0.09090909089207307,1.0287143410957753,0.07808227624842869,0.048026977360396156,0.08655290245219589,-0.5671833124181667,0.08176710565132629,-0.0475408551675525
445,0.06450402729125229,-0.35086387872701685,-0.000253721354089986,0.37239846422683986,0.09090909096227681,1.034691037645648,0.07775943096592519,0.047740052931681924,0.08660437934891088,-0.5731570905956023,0.07743820020366785,-0.04794909397601827
446,0.06872494939245163,-0.3492051477577213,-0.004765587657112508,0.3801237182780545,0.09090909081098973,1.0353639119019729,0.07840884195454755,0.04671848920822451,0.08657306294869777,-0.5833436722719221,0.07808257805602885,-0.04490991279460296
447,0.0692970362175915,-0.3460915525352669,-0.0039038000029167005,0.38538641649706173,0.09090909061891587,1.0606219543251352,0.07408402600947457,0.054439263889055754,0.0861669958307032,-0.591472375488635,0.07776927762939533,-0.039305380257112194
448,0.06962683407126681,-0.34459669437991014,-0.006221190246075257,0.3894730639282323,0.09090909530044121,1.075778840008106,0.07367740582528043,0.05654695682840489,0.08184257729910815,-0.5941549009767203,0.07838668710510553,-0.03904946406225857
449,0.07399424663508583,-0.3355383983154728,-0.009137314679741687,0.40004554714030754,0.09090906158953298,1.0796976937471259,0.06910829882728443,0.056281487183053765,0.0822712878405084,-0.6120388535693934,0.07431365066354155,-0.03443681429622483
450,0.07347699426611637,-0.32954843234001185,-0.008244161233068849,0.4095255209796162,0.09090924048234503,1.0835324637912913,0.06882689897840062,0.06108038717170116,0.08270111292048156,-0.6378542791340231,0.0735254275452854,-0.03468560571132682
451,0.07359332814607943,-0.32481770745301186,-0.01192838184819919,0.41912188430060726,0.09090845149124296,1.0730931869285494,0.06312038148055563,0.06692323097496153,0.07914748860146067,-0.6533959321162073,0.0735619592422805,-0.034928192934795176
452,0.0737091338919344,-0.319964520139714,-0.017126484621719302,0.4287367449427369,0.09091138086112983,1.0354815953024776,0.060333958347426164,0.07554149573285263,0.07811626854000701,-0.6578152884264739,0.07391453545225396,-0.03260007997389511
453,0.0731862367529646,-0.31491915397818043,-0.01727203038399063,0.4335272048010973,0.0909029298062169,1.021716354796127,0.060464546395642624,0.08049926072285789,0.07381235138882321,-0.6531489050383282,0.07125276990722004,-0.030372416512687524
454,0.07753186950511301,-0.3113243143208388,-0.017738702881194213,0.4376555432381186,0.09091362886850055,1.0060884317740293,0.06136757022459785,0.08163516033728589,0.0736241269431356,-0.633975908556765,0.06380336256964496,-0.02721608680820123
455,0.07789970688598451,-0.3117813343587466,-0.023152267641387555,0.43674804923222815,0.09100091909690503,0.9546828686288924,0.053470555604449924,0.08883182173908069,0.07376018965342737,-0.6029788752037228,0.06606760494828372,-0.025743885082630074
456,0.07843176437026943,-0.3116752156966841,-0.026290328411742968,0.4394719223641663,0.09001955828246143,0.9324850091509906,0.04768230344072434,0.09124343742694893,0.07218240051934066,-0.6001388817121087,0.05870442299666944,-0.02606895839094715
457,0.08267985723996592,-0.31166295818776407,-0.02600941313188109,0.44125779136752835,0.08611352112955807,0.9247384499806491,0.047647060865441744,0.0908522585343384,0.06923153904791705,-0.5670029491425618,0.05596803497535295,-0.02121444158078521
458,0.08212673476979711,-0.31176920389175905,-0.02552424888341643,0.44691762612934116,0.08669603813942954,0.8963774080585818,0.04755748989959583,0.09546063332267145,0.06666665078024689,-0.5489627818154648,0.0562622480834138,-0.01703601380277277
459,0.08228963717927162,-0.3077484365793187,-0.029401630577369615,0.458030352525914,0.08655573993930907,0.8773116950664528,0.04792573288755921,0.09517470942432729,0.06467453442351992,-0.5075293025378642,0.05608752229485018,-0.017408508749422753
460,0.08220965654017438,-0.29362911829128674,-0.030396591850108748,0.45877755776086243,0.08658419311497095,0.8374451300371608,0.04571725821409878,0.09503743818167672,0.06496647625456814,-0.5075175878479088,0.05159247028930784,-0.017284119157289293
461,0.08236152937984112,-0.2891419933496162,-0.030304569606533573,0.46329703732214117,0.08657965565894783,0.8273318309212915,0.04278489602543139,0.09679921618603843,0.0649355113158529,-0.5003684281073141,0.05199204904042081,-0.01735466531645387
462,0.08205430002438767,-0.28522257943213847,-0.030564989820258008,0.46352043845190855,0.08658005510718708,0.794290615310116,0.04379743424889646,0.10271193001466705,0.06493345112095746,-0.46710653291449605,0.05231577276471972,-0.017195074942671126
463,0.0866708703464329,-0.2602211588010954,-0.035960324242179216,0.4688828758258201,0.08658011953891159,0.7638571920884624,0.03958639383705865,0.10364557330190102,0.06493535463166364,-0.466705206151394,0.049435856232362324,-0.017656458207161746
464,0.08711248878837355,-0.241416625618421,-0.03897117006079211,0.47313937940116235,0.08658007466390791,0.7291677452661846,0.03887039236770797,0.10765226579045672,0.06493684090219723,-0.45666390233394655,0.047324594426817974,-0.013125029755600237
465,0.0914804293124696,-0.230121486389546,-0.04089422219523954,0.4803877035588571,0.08658008986321258,0.707501113823246,0.03852496047235118,0.1082491572471257,0.06492632480869732,-0.4141997597335303,0.04768681757277923,-0.013042089810962141
466,0.090348491858907,-0.22466718387019458,-0.04369519526705132,0.48817669032753525,0.08658008582050476,0.6798796910876512,0.028839507214304054,0.10816576069185922,0.06496804665332295,-0.3902812787953907,0.047582233104690105,-0.012906694856233162
467,0.09359308065465184,-0.22107370085988262,-0.04317960835889257,0.4894150680114339,0.08658008672696987,0.6334983356464531,0.02566999801112187,0.10900672587346869,0.06483872519094562,-0.3817102691213706,0.047383244152441,-0.013325065432487036
468,0.09506285739196356,-0.21090793083804718,-0.04339864419558582,0.4888696538359624,0.08658008655865428,0.6200329731202446,0.026468287860427608,0.11272647510770631,0.06506231691058163,-0.3470795421120474,0.04291305597628656,-0.010952691552003693
469,0.09894347792359375,-0.19271451721469546,-0.04315373397392181,0.49327178394146354,0.08658008658131039,0.594344314541504,0.023274285153611383,0.11425860017246996,0.06041276603317361,-0.30330371760990615,0.04341269365908307,-0.008725464000127327
470,0.09959994659191948,-0.1905918895465292,-0.047731032539217566,0.4982436989608511,0.08658008658063816,0.5638828707738381,0.021817819440986215,0.1176804230536568,0.06065753635941733,-0.2853028228673798,0.04325962525348263,-0.0055896803040630175
471,0.09958330456091702,-0.1894069527251446,-0.04817279035939348,0.5077397656485019,0.08658008657980643,0.5123688126099302,0.017954058720277548,0.115415190163837,0.060904391870849145,-0.25847502040642073,0.04328849071248673,-0.004065246458367317
472,0.0995589605809703,-0.18055701795921988,-0.0525160981163263,0.510805565924707,0.08658008658017455,0.49438156049100124,0.017275978613735594,0.1280773198108452,0.05850534662101858,-0.24726387834960828,0.043320644830924106,-0.00446814717221949
473,0.09956966225269355,-0.17739124541319895,-0.05139787144885764,0.5122943989670742,0.08658008658006419,0.47354808827903755,0.017301669983638617,0.12986463960781036,0.05595737924270605,-0.24170466420480594,0.043201200037281964,0.00011324107681385288
474,0.09956643949173148,-0.17402368606079274,-0.054501141689129916,0.5160651402740505,0.08658008658009139,0.44655606125887415,0.017324749080965905,0.13438577245467245,0.05622648975194198,-0.20931826796864697,0.0433885881535187,0.0006740390751973381
475,0.09956725509187801,-0.16918949464930877,-0.056122668796811964,0.512154923359408,0.08658008658008574,0.4175129638664523,0.0173075774081698,0.13412730962039274,0.05651544676886472,-0.18706494117643963,0.03875472302820391,0.004519905983007852
476,0.09956703212812479,-0.1597598925440544,-0.059774338934611995,0.5109770788220269,0.08658008658008667,0.40170389751800545,0.017345932566039283,0.133949044209159,0.051880475209533254,-0.15816846721856334,0.03906652196079318,0.006090210003460473
477,0.09956720551469124,-0.1542538760762627,-0.06069235877641427,0.5045239226719449,0.08658008658008658,0.3647906183964515,0.01719195263778112,0.13600329072414907,0.05203581046262413,-0.1367651765225453,0.03892166924926569,0.009198408053878102
478,0.09956709362136154,-0.14641220115103917,-0.06061076237848755,0.4851812917653886,0.08658008658008656,0.34432828540795857,0.017764828974124156,0.13893387028021398,0.051915766722812076,-0.12268734437595595,0.038999615803571794,0.008128545992919952
479,0.09956500730524669,-0.1466497358921712,-0.06059987615891857,0.4845412704524688,0.08658008658008658,0.31821543939888614,0.013587501985496053,0.13844589461081644,0.05195697170358962,-0.09589058194466378,0.03883448315783583,0.012399057655469057
480,0.0995839864474008,-0.13527890669999745,-0.06060841967197648,0.4755205449757239,0.08658008658008658,0.3009793762746033,0.012948851121704972,0.13854291550636444,0.051945985380570096,-0.08772998955740856,0.039400913252876826,0.013023643814987195
481,0.09947267110775274,-0.12619610701333203,-0.0606054057327492,0.4753567621501886,0.08658008658008658,0.2705432109173855,0.012972954589707021,0.13852398759778273,0.05194848921077985,-0.0643036211561994,0.03515162196556059,0.012995401056536569
482,0.10000167789232277,-0.12247143440443452,-0.06060607177192297,0.45911903187534575,0.08658008658008658,0.2278875142409762,0.013003644472426214,0.13852049143427156,0.051947872216814836,-0.04224190346957432,0.034611661165104224,0.013029144706011327
483,0.09669361769809219,-0.11295690761754712,-0.060606667752996626,0.4510768389536311,0.08658008658008658,0.20399303918455194,0.012926293465585154,0.13864799065936967,0.05194817194251634,-0.018356938978670932,0.03461399848299845,0.01268321965634886
