,I,aVR,V1,V4,II,aVL,V2,V5,III,aVF,V3,V6
0,0.014644351464435146,-0.006276150627615063,-0.0041841004184100415,0.04184100418410042,0.0,-0.0021645021645021645,0.023809523809523808,0.03896103896103896,-0.012987012987012988,-0.004329004329004329,0.049783549783549784,-0.023809523809523808
1,0.01627263824718073,-0.008392321995609252,-0.00346331024272604,0.04187796633727019,-3.4283907023416275e-10,-0.00885918238069133,0.02607340186845859,0.038952257623778394,-0.012987085064195514,-0.00450864684958067,0.05196186323609432,-0.026381407225616844
2,0.012185450265136672,-0.008519495961963356,-0.0005643774068009467,0.041658064078951194,1.696844208989085e-09,-0.01611229976361007,0.02576223027969399,0.03900450122240723,-0.012986656057100964,-0.0033754534320504155,0.052161296344084875,-0.031580631027033186
3,0.01266610928750433,-0.00720248274402331,0.005711020245939534,0.04283590459480984,-9.22810774081562e-09,-0.037734797173944595,0.027217838748042185,0.038501286192051114,-0.012988952305190968,0.00042903291910560275,0.05043001391141022,-0.03472868391927348
4,0.012508292476061505,-0.0018730361224034635,0.01924138823168134,0.03567425652228179,4.2957983526855894e-08,-0.05110066496676529,0.03258570247480303,0.02767403145914583,-0.012978003955225343,1.7509753773331158e-05,0.047155708564640644,-0.03623150514194861
5,0.012623389711191459,0.0019996497768682907,0.029042675852211368,0.027039834380298923,-1.727327364120583e-07,-0.0698531427716869,0.0371223695469009,0.021015908787844324,-0.013023097705767797,-0.0005105383245266715,0.0478204864949392,-0.04165932534889663
6,0.012324309157691477,0.01271537427146613,0.03554654905645514,0.014934339271499564,5.861014568595311e-07,-0.08399321849560834,0.042786252340572054,0.017109498465809763,-0.012865563321625568,0.003579910114917137,0.04724032066751877,-0.04622897818781666
7,0.013166530971121686,0.03156594950437803,0.05606563928505832,0.010359282817955643,-1.4585552414771468e-06,-0.10193879865950133,0.04272329569614949,-0.006509814491110758,-0.013281957931488291,0.0038490025575127337,0.05139334113068883,-0.05155362378675846
8,0.0043663634730984925,0.04181512708422621,0.066902378209849,-0.020781182511799258,3.757112831870757e-07,-0.10801203482626176,0.05616622933525565,-0.012975150961452271,-0.008659578651401404,0.012915455204384339,0.056271529520546607,-0.051876150955429814
9,0.004272130429076613,0.0472792495740121,0.07632324667855624,-0.02590397835100962,2.6836502206315188e-05,-0.12744281090021228,0.07048265959337255,-0.017882106159350385,-0.0082941127565021,0.01312865394934385,0.06575565607739885,-0.0565985340655143
10,0.0043133656483707,0.05996323883934376,0.08591685839819657,-0.0397464368861539,-0.00022307320877965823,-0.14587846373684643,0.07946447420545477,-0.022720392168996056,-0.0041114762897840815,0.018487711082405673,0.07016236794822546,-0.0614912738101207
11,0.002948134517303352,0.06690963508966544,0.09351914280382484,-0.042473412581670394,0.0014813680883340793,-0.16027112486677617,0.08217579165665315,-0.02721615438349254,-0.002931185832913551,0.023046575001071982,0.075613886150208,-0.06543557331852091
12,-0.0005029805251310543,0.07826711977814653,0.10066413460910281,-0.05195162060656799,0.004769283591183194,-0.17392947799783123,0.08440060532386325,-0.034558630569604364,0.00043758209869083887,0.028517670553957923,0.07782044087811674,-0.06414572015206729
13,0.00034983998702978886,0.08189022989121875,0.104800303779479,-0.06388897852975434,0.004232600240148653,-0.17764317594170195,0.08649403402249824,-0.041849633880452944,2.5375830181912588e-05,0.03009111025228216,0.08065112082684245,-0.06933857402967247
14,-0.0009272675437542032,0.08671607987383757,0.10768188127983941,-0.073812258751249,0.004347590334183082,-0.1802156020903037,0.08982912740134161,-0.04684745096139452,-0.0004078989652294286,0.033650361703194555,0.08246648019625064,-0.07685169160334351
15,0.004943472799456825,0.0916900862897863,0.10899522229166299,-0.07521299933914241,0.004324051373374766,-0.1854418012608669,0.0910911799380347,-0.04748701326905166,0.003920870786833145,0.03446581759474586,0.0822955813681928,-0.08114396553324715
16,-0.01173016008584532,0.0960644359204012,0.10874615043183215,-0.07945922762401286,0.004330344820448739,-0.1902412291260802,0.09088049745680502,-0.051876571764968585,0.0043295399182748644,0.03887193450478601,0.08224668926196295,-0.08631022644847006
17,-0.012405651309498656,0.11421700458655341,0.11320388962460246,-0.07960599049916137,0.004372389406169456,-0.1950861826339789,0.09592688278045852,-0.05680035523298091,0.004128359558366152,0.03881808396492471,0.08681768838675459,-0.08656366350254108
18,-0.012585257393752027,0.11713770335337628,0.1128663997052418,-0.08561845144362015,0.0038999563733112786,-0.20014461597817215,0.09900663379436943,-0.0609968153793888,0.006233392821694805,0.03977445454159215,0.08674016403638465,-0.08694388011228618
19,-0.013084494146151574,0.11722051152109922,0.11300855383116648,-0.09389733519486741,-0.0033581968005390005,-0.20351189435616518,0.09468110317281488,-0.06015049929227255,0.013577057551282967,0.04382938390005078,0.08485226150749973,-0.09209595648983858
20,-0.020608004449508745,0.1168510813890371,0.1129329745304419,-0.09845395957716774,-0.009420578645612876,-0.2052790139979308,0.09537823977063886,-0.06280154896638514,0.014898797994022281,0.042756615919744737,0.08346242745545444,-0.09672834658121485
21,-0.02562274901253055,0.1193270599371767,0.11309386918378606,-0.10078264853604767,-0.00851141103136831,-0.20784602234153132,0.09521559866846939,-0.06489508978576508,0.017750199099538958,0.045933509275774546,0.09007355549744851,-0.10208917431805556
22,-0.02561517670908385,0.12474383169385701,0.1125488401665156,-0.10014369570447541,-0.008610904347547197,-0.2104390192272387,0.0952131697837008,-0.06793907087108468,0.01713287877610844,0.04789186324754007,0.09018946346901185,-0.10392472753951912
23,-0.019069898354420998,0.12569858646926896,0.11668592232325142,-0.10360947299807796,-0.008859552750590482,-0.2155143026705903,0.0953179570903207,-0.07271506834663159,0.01759727020535489,0.04755558664484488,0.09878100098047778,-0.10639277736374045
24,-0.008799613052823646,0.12546050090580094,0.11716676684604585,-0.11282278466092921,-0.004460099079082454,-0.22065303094796543,0.09518178167123577,-0.08207943463745025,0.012993972399732835,0.04765072202142622,0.09956425422810433,-0.11557667491216411
25,-0.00837834775236422,0.1298415128048639,0.11708734210816145,-0.11750261178598499,-8.891765788313174e-05,-0.22093655510885307,0.09981722248962079,-0.08663219234938749,0.013143394937778916,0.04789037630865801,0.10422385263110769,-0.12122885161897956
26,-0.0024656074041512145,0.13044573953837865,0.11794855101771654,-0.12252632238759602,0.002408150618598752,-0.23128233655539343,0.09931031414911365,-0.08718857254268837,0.012202873901288911,0.05219011133622201,0.10360743783913265,-0.1164639291847882
27,0.009492895951508172,0.13413863245075805,0.1217906457060001,-0.12555254490334447,0.014406722326559068,-0.23850278760351917,0.10066263225188483,-0.09254603764625624,0.0070316983471885725,0.052827369979989915,0.10506031620193919,-0.11170062249249457
28,0.008041514226864442,0.13533385224990413,0.12122043150223326,-0.12739857202239238,0.012613075883082291,-0.2394344120871946,0.10646670708558519,-0.0972469089573912,0.00184882680314564,0.058656681349828314,0.11101048632922114,-0.09729642748674257
29,0.008448674646463568,0.14101305278349435,0.12137400875396713,-0.13009554015933403,0.013104165924199176,-0.24430286451276342,0.10809665291660978,-0.10223556745285978,-0.00024846128671501366,0.061003673518955366,0.11197586374018509,-0.07598072966322678
30,0.008353005506867444,0.14252918411752452,0.12130151806838158,-0.12959855013145602,0.012845365417394223,-0.2528425126958193,0.11121953647446534,-0.10678122540015166,-6.269701446870045e-05,0.06011188472670067,0.11894700256684901,-0.02648190018240969
31,0.00836370060826416,0.14198757546145585,0.12142713312521564,-0.1298187629672519,0.013329153896851308,-0.2557701018495598,0.11593458405550029,-0.11254680772360397,0.00027139480070000467,0.06429440038202124,0.12510394912375952,0.04371683528077682
32,0.008386946273842793,0.14631268005646691,0.12126105704059364,-0.12578358269474857,0.008719288218167526,-0.2554134051399191,0.12533758557400684,-0.1082457477186574,-0.004320128889619168,0.06501951994360278,0.12985814227728332,0.15547771716420075
33,0.008361120293495217,0.1510977763554666,0.1256596540566935,-0.11182724373685725,0.008393507507225614,-0.25544189507258497,0.13030808989582135,-0.10710018613654923,-0.004256963360397328,0.0651873665187655,0.13517430946438178,0.23075603208163467
34,0.008031448450051177,0.15491195864089516,0.12618050118475274,-0.09638480528402725,0.004108573106973726,-0.2605303403993464,0.13432659987694331,-0.08909966825649686,-0.004360306920122962,0.06927533572933386,0.14388762584085432,0.44614828823167363
35,0.0037222263591197738,0.1561112742910477,0.13025278785041472,-0.07277605193930584,0.0030812512928807536,-0.2641223275042467,0.13553348031336018,-0.07227905957368903,-0.004313336392664275,0.07162111456389228,0.1516962833321835,0.5445944842540085
36,0.004707576126233203,0.1591315105376478,0.1292640049725611,-0.05668122805819574,-0.00045616306572705714,-0.26563280812143825,0.138684468945819,-0.047675290700725056,-0.004362363825538319,0.07888069552954856,0.16322022675763762,0.7448515516101133
37,0.0017895870213414026,0.16110632204212963,0.13192648935038295,-0.009042841625275756,-7.15383634895868e-06,-0.268422854808122,0.14065291434469554,-0.020970349309920377,-0.00420345857643611,0.07766368464756243,0.1670241954428356,1.0210295946952441
38,0.00219197715968996,0.16462777801777875,0.13692686007620536,0.04196608512728136,0.00038987227097917604,-0.27107701237318377,0.14615002259268023,0.07511692331547934,-0.0047522885916354346,0.07810598990887291,0.17200210021658177,1.2291316752803538
39,0.004540155788721333,0.1524822253176297,0.1416049717039486,0.1820264530462521,-0.0036904101280745786,-0.2730443086392498,0.15048685169441248,0.10881326956028922,-0.00042596061189772647,0.07749607592337085,0.1771591593199616,1.3586656136195967
40,0.004050516098901242,0.14647699188058352,0.1462691454307553,0.19633997722259594,-0.004450017844208826,-0.272535353946426,0.15991108164003684,0.33504009115998634,2.964374140654053e-06,0.08213501226104182,0.18176696843207174,1.4186322329078906
41,0.004293333633505701,0.14657976899785197,0.15072960835182236,0.47875284928556566,0.0001913257735972989,-0.2727863846977959,0.16480883150848347,0.48058990437212123,1.912679497035179e-05,0.0825548290903326,0.20029833289415075,1.5232671214227091
42,-0.00017804571793518604,0.1451247288941986,0.15113615256168988,0.6134749128781936,-9.637171738365732e-05,-0.26368524856950726,0.16997158466831142,0.6533843349976263,-8.342719759745656e-06,0.09150800296224575,0.20560488265348828,1.6693683141721332
43,9.610115462543303e-05,0.13585076126664408,0.15636601796745467,0.7976862094328295,3.099012704311237e-05,-0.2632187598094333,0.17326659796103333,0.8540946566749906,4.193722933854811e-06,0.0916063944126585,0.2218838979860092,1.6701014872225266
44,-3.191482752623317e-05,0.12129311748934356,0.16075525958055004,0.9399185004592737,-9.196754495903598e-06,-0.25011486327606813,0.17470608086451253,1.1640972440453905,-8.971884305235408e-06,0.09726501822395081,0.2337668450524441,1.6583355643273048
45,1.045579843300644e-05,0.11243653165138769,0.16620069653456984,1.033284547574934,6.559291426067134e-06,-0.24138836475677605,0.18010973384904533,1.2766895275593229,3.381367097733479e-05,0.10181398277904939,0.24434013377324842,1.5938895594281994
46,-1.0500887444448578e-05,0.10739480904495519,0.16680038738409766,1.0802837346003815,-1.7338063248286565e-05,-0.24247748217104403,0.18490650402543424,1.3806678149488774,-0.00011416114265332412,0.10714409616406811,0.24647684666284714,1.5065939902241166
47,3.208040114723127e-05,0.10084262338130033,0.1743282500294068,1.1325534187772295,4.777140149776323e-05,-0.2430410364491589,0.18964113048632975,1.4568212855765592,0.0002818392842090208,0.10846537393465916,0.25404164626391684,1.3919815409613443
48,-9.627322159314804e-05,0.09650610375490068,0.17977898435517425,1.1424019055226253,-5.834965078419278e-05,-0.23545389978053485,0.19475666691389126,1.4715257079303277,-0.0043159638143476725,0.10803213403374116,0.2640331506162597,1.3584670001973296
49,0.0001760403647312447,0.08710596584421026,0.1844716582119921,1.1419992488481086,-0.0004978909445247095,-0.22531974258755794,0.19520970963302722,1.4900463230227776,-0.0042859264699071755,0.11269320112177098,0.27417600433923617,1.2041198091263041
50,-0.0042939707361810105,0.07835426765582051,0.1889657415895891,1.174513703469212,-0.009468323755048115,-0.2202367684080007,0.2048838162260435,1.5329509209660914,-0.004130646185968892,0.11186779847304522,0.28819825558351747,1.0012452245687677
51,-0.004097751655646587,0.07411318325934013,0.19502790781620857,1.1747599172883874,-0.008103276920647981,-0.2102469463361852,0.2087445909935734,1.6204979363258052,-0.005831988003511502,0.10802364168850309,0.29773148870714394,0.8870800068090038
52,-0.004214858959121209,0.06877535788770749,0.20357467652591724,1.0261081334787578,-0.010647820197780423,-0.20057221333890035,0.216086461959451,1.5375511205800492,-0.009066098706493025,0.10693242816019288,0.3055084700535438,0.7203306985340222
53,-0.004175517156389353,0.06718112755105325,0.20482476092624233,0.9317199079587127,-0.013360585023129506,-0.1912990624344663,0.22349817207623593,1.4094112889901513,-0.008690612416343588,0.10143455182004704,0.31012164608278064,0.5111119226427367
54,-0.004185912867768112,0.06221172960912836,0.2078438312898802,0.8604785670183895,-0.012908662119101693,-0.17870178330409422,0.22864146438439095,1.3462280713188206,-0.008241572633021632,0.09685994718473294,0.31437976666803635,0.3413060922388024
55,-0.004184734323216723,0.047373591607323934,0.21229724882933174,0.7578106541707642,-0.013015837423957554,-0.16675086157224647,0.22895287734168285,1.1854641477014682,-0.01257560428974429,0.09147661997159885,0.32682488827413014,0.1412032696177437
56,-0.004180697596759448,0.046068089987940965,0.22148881237315216,0.614895185512641,-0.012961582820299,-0.15783982857058415,0.23768843108227372,1.0003156436872092,-0.01298658131081677,0.09098028975449761,0.3462383450220846,-0.05043488169539948
57,-0.004191966389153031,0.041742410074414295,0.22163274254466214,0.4578961472300232,-0.012821322953061246,-0.14360596579412782,0.2426992425569033,0.953365217278552,-0.012566422859158887,0.08638479440410694,0.3551781456161734,-0.12627929006178684
58,-0.00418813347644483,0.04074638026191719,0.22230024112677305,0.6036337991149142,-0.007571054021233473,-0.133786169610701,0.2474591104484576,0.8819842738524105,-0.008645392540442587,0.07635629511500623,0.355780304771732,-0.20441527162410278
59,-0.003991150776174071,0.03145160150002017,0.22766287231235127,0.6529670524377703,-0.004059994236302441,-0.1232215298361316,0.25376305393731186,0.9426857040804381,-0.006016328362486001,0.06860097554383156,0.3705105829558305,-0.37564825748972086
60,-0.005722656198230624,0.02808009145274933,0.2301202438926945,0.34125848093290373,-0.0037043870202640968,-0.11030141327345076,0.2619879512649722,0.9293971134890644,0.0025234607541312266,0.06940521220500688,0.383456323735849,-0.4400299029139946
61,-0.004741052105690196,0.019757887182608676,0.2322446185997927,0.13466919077372194,0.008630804743876168,-0.1073705903396263,0.26703984633957956,0.7026602914863803,0.008628733307253535,0.06944810157492706,0.3929744075832366,-0.5446008485987966
62,0.007720326828930931,0.016750111979485924,0.23689207885921526,0.016477050734637844,0.031021925766126297,-0.09675708461864033,0.26774801390991676,0.5894844167789752,0.023514703339556624,0.0672139281529378,0.40471077771533404,-0.6017423512514898
63,0.008068164647585885,0.013052214654840548,0.24535263149219624,-0.6328296171024392,0.034837749871570796,-0.08716215337568461,0.27572323428096046,0.38206598092778,0.026312571595009323,0.0580791733051454,0.4180661459400594,-0.6087869672617893
64,0.011214820637079952,0.012788591149108065,0.2510343640052674,-1.0360891425817076,0.038648087795185096,-0.08403935939409068,0.2771843119300391,0.2561436973329796,0.025958443009374246,0.052354497213251236,0.4328208713646882,-0.6062033545298373
65,0.016285315527242206,0.0039140944540269765,0.2514219365121721,-1.0417819177182706,0.04361325506111611,-0.07020981974798755,0.2825002799349647,0.15149114431122954,0.03096566159815625,0.04756776011025872,0.4476062391394651,-0.5958369064026473
66,0.02075316776056191,0.003685501959774873,0.26005722386893904,-0.9673093520530616,0.04780946623140941,-0.06484675406168447,0.3057925624677413,0.05819167306464638,0.0347203133546705,0.04212164165023488,0.46046781603526094,-0.5801195332918548
67,0.034920927459685606,-0.00022648928714243832,0.25977761830044105,-0.9369840429945793,0.05796588629727332,-0.05976005524175986,0.3141742997171167,-0.24788068363585855,0.03601148282688899,0.034037309057836876,0.465459501896624,-0.5471643314792038
68,0.047774028285415826,-0.0016253924887444735,0.2677882357002376,-0.8892616088024679,0.07911703329334475,-0.056151914073629364,0.3231668488561316,-0.5494216809654601,0.039538726806777454,0.03366121985649732,0.47904108846929583,-0.5226819646267664
69,0.04974682500097623,-0.004718437045934252,0.27217500630762886,-0.7899160092465474,0.08493004689039794,-0.05501723535064535,0.3250382721727984,-0.6288773926107047,0.03839293611007202,0.027497674753810084,0.504296640823891,-0.49773705437053917
70,0.05408031722741987,-0.003662129305054401,0.27482549948756063,-0.6725894372955905,0.08855706837159673,-0.04959857697272551,0.3448821315134299,-0.6222537014514278,0.04234684817034265,0.026191734126607403,0.5115877061640224,-0.4599491281233449
71,0.05890183428753745,-0.007736451375410157,0.27636500212587567,-0.6307329649389167,0.10201880787506672,-0.044834152940131086,0.3511104660384875,-0.5959325796276057,0.04339184598485449,0.02263170366569947,0.5168720735708386,-0.43410336602207894
72,0.061424994804846395,-0.008417886668173424,0.2795095011121103,-0.5689174760681908,0.10405963440860264,-0.04010468109913332,0.3547001102867045,-0.588880655702644,0.04329135749221947,0.02146366817471037,0.54532148661761,-0.393093619336702
73,0.06318051779808563,-0.008378144377069236,0.2975686077002139,-0.5076967268962936,0.1039967613562612,-0.03485786846331717,0.3600092066077807,-0.5739023937075322,0.043481073746671546,0.021642698394128846,0.5552746345579663,-0.36287983014240127
74,0.05884662218635138,-0.008361719050854699,0.29710885062266723,-0.44788335369738214,0.10289964916535677,-0.03461861421772178,0.37944315367386416,-0.524177326949613,0.04154052068532967,0.017021435105857092,0.5695189267369962,-0.32201463453692913
75,0.05425980307226495,-0.008370437630022308,0.30362919475695005,-0.3628932148769069,0.09207337999172831,-0.030120961535048944,0.39395689551789737,-0.49423999646527544,0.03341998786921824,0.017656635774707687,0.5801851374771153,-0.3029784137822458
76,0.05462894181013437,-0.008367458178910747,0.31359108744099834,-0.30375019942237097,0.08486116750068952,-0.029492771257560654,0.40484976337381684,-0.4801631091790882,0.036176583781932635,0.015766797337865818,0.5944183546749122,-0.29429342440152817
77,0.05319716717097281,-0.008368951990155537,0.3205288934882554,-0.28266386200994603,0.0771704013353403,-0.02547165300254116,0.41158884988428407,-0.44499069538176506,0.02623565583621629,0.012591167716298084,0.6152060148634196,-0.27436870722608225
78,0.04979146447124843,-0.008365893880571549,0.3265931236267044,-0.2538124574438105,0.07281363535890657,-0.026102758743735622,0.41890323825171744,-0.3798895790407494,0.021156481965741172,0.012943986948686292,0.6353850993841257,-0.2514116328025218
79,0.05022015929758233,-0.0083750963501622,0.3446340405079922,-0.22274792465908122,0.07436998307150876,-0.02593722172876007,0.4254679714755555,-0.3523032790814869,0.018360069199690906,0.013436064288365399,0.6641623735576144,-0.23890009762948075
80,0.05053627839792306,-0.008356137739683247,0.3512915576783294,-0.18300034482792762,0.06546081881358766,-0.026010611523402904,0.44911991360727743,-0.3303900494678752,0.008712296480191492,0.009015046840553008,0.6709756054769711,-0.23080738039702473
81,0.047047839936335836,-0.00832815089298285,0.3558046957675397,-0.14097174104414248,0.060268167763791854,-0.025891296414735913,0.4547641899460156,-0.3149526247319143,0.0038768977329076706,0.008691976384161255,0.6811384589118418,-0.21241161195349978
82,0.042173340003266634,-0.008961241765272151,0.36182424491293697,-0.12890087662109156,0.05078637524189092,-0.026030196956535648,0.46488915212773685,-0.2799330069793637,-0.0010096323356967847,0.004422001037757198,0.6955308251516497,-0.19316758353869756
83,0.037485032082912505,-0.012987114930821811,0.3739454281036846,-0.12383371186098721,0.046602480285267193,-0.02143726257974192,0.47443702848391484,-0.25643070522066413,-0.006270042234652344,0.009167056152055526,0.712182606064408,-0.1833764142599797
84,0.033347812077427444,-0.012432609766003988,0.3816844139217786,-0.11060779109793278,0.040301579177016995,-0.02154717987946234,0.484036000267166,-0.24456036458752967,-0.00857403232108749,0.00858685920203458,0.7277884498235413,-0.17335415284802103
85,0.03265396153241812,-0.01258054215082609,0.3916323266442179,-0.09197877535552765,0.02752934501474412,-0.022989058013300985,0.4946806567631656,-0.22575393001920202,-0.011345037660431611,0.008274590707538396,0.7385875818219833,-0.17305921849458686
86,0.027961766615740145,-0.012546551758838476,0.40085763707711314,-0.08749586757885679,0.015020697094175849,-0.026440649112347656,0.4994832433217532,-0.21336310046098064,-0.013218748083602495,0.011340858745629467,0.759767109215296,-0.16789032678314844
87,0.020332729414299373,-0.012553360020896282,0.4167335619467143,-0.08511112272839903,0.0098938312837547,-0.025837264896409074,0.5167696143377868,-0.18935361052961172,-0.013010725341043796,0.013243647556221823,0.7864568821272288,-0.16318717406439684
88,0.01659712544245456,-0.012551962125693764,0.42198766110615543,-0.07591176423140474,0.0004567580690413935,-0.02611306821507351,0.5195558199452635,-0.1858205955629834,-0.012969963841647534,0.01295112522379776,0.7878103390218358,-0.15839543850860693
89,0.013518031296210424,-0.012551632804700986,0.4355652407798975,-0.07110317258693012,7.458241657876314e-05,-0.025634013773064707,0.5239886372245895,-0.18106178964939193,-0.017945698729920516,0.0129887346694112,0.8063865477400903,-0.153118452162703
90,0.012435911269267132,-0.012562785010262971,0.4398498428568032,-0.07062348116235617,-0.0003667523351776462,-0.030162507549357016,0.5299888146865082,-0.1576966793812455,-0.022006854749518724,0.012992359091867842,0.8121185995664671,-0.15129046583972441
91,0.012551674967035464,-0.012481230837334515,0.4448310717964489,-0.06642607956043463,-0.006752318040473888,-0.030249462147287874,0.543336696222086,-0.14918817993667347,-0.021212568357619303,0.012947616273036972,0.8350192764705192,-0.15148234076050693
92,0.012652208148611887,-0.012922189998790462,0.44929482573770047,-0.06743960297045984,-0.015528924446865579,-0.03039192781418684,0.5468317149577089,-0.14027679537343668,-0.02378547834238849,0.013217643474291232,0.8575729301009469,-0.15167170047177822
93,0.011737778249379383,-0.010255764507068745,0.454730710449307,-0.0646222340027985,-0.017567298503978913,-0.02990516513573619,0.5529631498362821,-0.13833738451872576,-0.02632548927622302,0.011432420647131208,0.8743498179977885,-0.14707208094906485
94,0.007572740367719601,-0.008067532517744879,0.45541481747511875,-0.06245610354940427,-0.01715015237345737,-0.032616457481423985,0.5514763838192938,-0.13848610732559988,-0.02591099903964845,0.005559759756571531,0.8854328485928308,-0.14276049688528347
95,0.010582228735527189,-0.008410896270016096,0.46292333726319873,-0.06283688911606734,-0.01770128561318306,-0.03230858492315481,0.5491597193457511,-0.13878804209883636,-0.025980430966358745,0.004480685931158323,0.8947173677308308,-0.14199334301776315
96,0.012549443203994842,-0.008377309353331886,0.464588238882508,-0.06270455992516026,-0.013272784241421212,-0.030830709809456333,0.5538780162001327,-0.1347040131222369,-0.025974522114323013,0.0008550788909201499,0.908952383870297,-0.137936610308906
97,0.015249520125537673,-0.008396105471422057,0.4644698067144099,-0.06265593786668235,-0.013044469101925731,-0.023118264607212995,0.5541154017399088,-0.12986045542492472,-0.02600717835290385,-0.004169636204184218,0.923102591242149,-0.13911472576145945
98,0.02055989050515194,-0.007832411898798214,0.46402371054764335,-0.05824134846955952,-0.012367435947182991,-0.021474014140049014,0.5536314634257032,-0.12878332634052098,-0.025692422507436596,-0.00907523278712389,0.9260831560348192,-0.13563918711859954
99,0.02093714705335945,-0.003755789554601274,0.45877654095607545,-0.0588269146117883,-0.008510129311266657,-0.02149186068231711,0.5488694864579902,-0.12059085817513039,-0.027795392555943405,-0.013299534541039,0.9295292323486386,-0.13438912110205173
100,0.020930612262648984,-0.004304332720610505,0.45567815736868594,-0.05754666088049697,-0.006973022850886816,-0.016879661292398065,0.5408763471369995,-0.11965326824405582,-0.028631786701213056,-0.012808718089386563,0.9344719968513925,-0.1304085272895361
101,0.020917917700024886,-0.004155868924207066,0.45640778654332237,-0.04983028574529372,-0.0043360530339724935,-0.018284547043124388,0.5254200875029227,-0.11689063684274387,-0.02551214789886261,-0.013414824382576901,0.925624098379492,-0.12984997992883815
102,0.02090685418658109,-0.00418758048238891,0.4538531805571533,-0.042943520060922016,-0.0014501109798856907,-0.023791036575147962,0.5106999382983923,-0.11388612125288668,-0.026086299108779378,-0.010450220505879916,0.9149875450551562,-0.12993139548325058
103,0.0209949032386378,-0.004190936361949458,0.4455798886466936,-0.03872663327299535,0.00018698279680918247,-0.02632066274710718,0.49925935014433936,-0.11276107344954274,-0.025887594329382726,-0.008291807899743915,0.9104568315677093,-0.12909388189665605
104,0.02060406469774057,-0.004168063531504411,0.4356531901507187,-0.033633988702687447,3.544734468820948e-05,-0.025775666564577745,0.49061945495652454,-0.10848172380488627,-0.02600161241558441,-0.008948921447503812,0.8877118026566654,-0.1253776417599542
105,0.023477149760852148,-0.0041597681163783725,0.43069977220764327,-0.033397758221681104,8.604954044539571e-05,-0.026412421446844518,0.46697633578388636,-0.10815386863779927,-0.021358651301696296,-0.00462907547163454,0.8640976010813293,-0.12382483219847662
106,0.028930636154337736,-0.004727772389573825,0.4167008133150576,-0.0290938740280767,0.004651379623947401,-0.021896890484346936,0.4524324193589203,-0.10368996163439426,-0.02202459984990275,7.20859207502179e-05,0.8487445734098811,-0.1206641289304519
107,0.02914697445008223,-0.00854100901996654,0.4080487567743519,-0.028397252495565337,0.00419210467696349,-0.02159410759404884,0.43126158128111813,-0.10295895912676699,-0.0198601469098578,0.0005608190437213199,0.8317356361560572,-0.12174739683702046
108,0.03844367911628417,-0.009860997821518834,0.3969527352053005,-0.024524492015922935,0.004461615859370617,-0.01712505108679459,0.4077442503883991,-0.09905892834878186,-0.018683365802692517,0.00512839647775183,0.8200321553778327,-0.11762066435637208
109,0.05088114702313976,-0.012987693591188546,0.38234187772911815,-0.025653266989826735,0.0038761464858255794,-0.01638934246964238,0.3918888757855298,-0.09971822685337349,-0.02435728936047547,0.002229652198110141,0.7754024099809825,-0.11676176577877502
110,0.0510443612014113,-0.012461697753169456,0.3687656404518527,-0.022254108352048968,0.00724777007692598,-0.012745717488879559,0.37180546140971127,-0.09942639315654334,-0.02953909999211109,0.00012447467854473978,0.7376049627117007,-0.1167768386179047
111,0.054920618554238555,-0.012567661586204926,0.35315676724236233,-0.020716723118211464,0.008895093522282092,-0.011348875270866352,0.3466032243403605,-0.09994238724877283,-0.030250907937332087,-0.003144106194338276,0.708207929331107,-0.11224499378524617
112,0.0542634719825568,-0.012550687945794711,0.34869146732377965,-0.020958898939266113,0.008569944586375822,-0.00543887516914883,0.32288950838668645,-0.09562144924404825,-0.03454425268839456,-0.004155805966258736,0.6929287224905307,-0.11266392224143751
113,0.05443587315141848,-0.012552301952033204,0.32178081236900374,-0.02093963574042516,0.00858681443172027,-0.0042458798928885905,0.29393626271004836,-0.0953207781884966,-0.043989878995719565,-0.008425313927075214,0.6499048408682578,-0.11254532644435271
114,0.05433598017771335,-0.01255001357852352,0.3176437991406765,-0.020414392602662156,0.004125871551990936,-0.004152146825270287,0.2855223317864118,-0.09985079575531854,-0.04878280733577786,-0.008572119560859215,0.6125039840797727,-0.1124530359043133
115,0.05450597731278938,-0.012569806577449516,0.3051672458005469,-0.016491096379525675,0.0036080097109022578,-0.00863079458778504,0.268282350298681,-0.099472229968911,-0.05200751688170614,-0.009323527265191438,0.5655566187894432,-0.11298545504703907
116,0.050029402641537324,-0.012457709948213382,0.28820363391862897,-0.015657677165599394,-0.0018173718302469358,-0.013104846309749854,0.2478199677868257,-0.09952645377828448,-0.05395212717016628,-0.013352601123411172,0.5282432974058631,-0.10929356084869661
117,0.040959979682238204,-0.012980988503656723,0.26932325838695736,-0.009807858243003913,-0.00666694652188332,-0.013548227852054716,0.2216143205952682,-0.09988449487033173,-0.05665779583572964,-0.013254877798074938,0.49416320729857066,-0.1078159185553066
118,0.03663163385111842,-0.009760294888337608,0.251553720814616,-0.008590976626056682,-0.010979600747175699,-0.019378426473971862,0.18211099252819696,-0.09714350444774379,-0.05620756635033525,-0.010599332919122325,0.4491881137304082,-0.11250787251341585
119,0.03192412140891352,-0.008153558396412382,0.23066072894994996,-0.0050411109275070795,-0.01980620837235849,-0.02142204151431545,0.17755308359542377,-0.09154628364666025,-0.056286556133140216,-0.0083452072724833,0.4177096219586146,-0.11249636806374848
120,0.02671636450748922,-0.008408889896778017,0.21446744432630185,-0.00410825106205449,-0.025550361073579317,-0.024740916326210862,0.14561844980988656,-0.09084659498560108,-0.05627670673831011,-0.008709366813015217,0.39007188765952766,-0.11258398533206636
121,0.025321914820446045,-0.008380684575556144,0.2005688003038843,-0.004193045552222091,-0.030342412976240594,-0.0229320802229853,0.1296670858145857,-0.09091009203397551,-0.05626980418991585,-0.008652098789415127,0.34233993938020457,-0.11252486035376719
122,0.02176650551089588,-0.007913286237765538,0.17656587945126656,-0.0037223462523067823,-0.03013612155336109,-0.021550429296239904,0.11022165779555995,-0.09079053819085055,-0.0563358274774626,-0.008654952371791818,0.3154293253535453,-0.11265783070538095
123,0.02107140720785138,-0.0037687544755060634,0.1560658622370215,0.00031231162781031427,-0.031147930026024704,-0.02157801710679302,0.09733411032347639,-0.09190759167252953,-0.05594034883538007,-0.00869962450484429,0.3003111615438263,-0.11212648947407508
124,0.016763577297542798,-0.00430467479592577,0.14619159264537068,0.0007013618359981605,-0.0363278355785475,-0.026265599508040353,0.08601221062889539,-0.09569632792749452,-0.058369736737628256,-0.008376697016609634,0.26945510964813224,-0.11555857601856391
125,0.016899132863992635,-0.0041548323794577315,0.13292482796129196,0.00904829185838168,-0.041504663540446046,-0.02510137218004495,0.07301272284734382,-0.0951634690629475,-0.06099905579610128,-0.010431669481455942,0.23275292617205612,-0.11743311995709475
126,0.015873429599409385,-0.004188720751141934,0.12598584285070427,0.012667119561604547,-0.04356222802716536,-0.021219256624123786,0.06396844432267636,-0.0951035054777438,-0.06042490763795752,-0.01315364267070007,0.20010263489247498,-0.1127198896445325
127,0.012134682126122126,-0.004188531276420151,0.10447156669020981,0.01576904654166339,-0.04324241310024725,-0.021750322600940127,0.05360317308839036,-0.09575850887325237,-0.06090924172070349,-0.013853369967395685,0.1670736353820905,-0.11248134173345062
128,0.012558712341108086,-0.004171390806694767,0.09679156413903411,0.0168732251673507,-0.04329572067183715,-0.021650165699288963,0.04821887852650328,-0.09102317355562987,-0.05631214053368316,-0.005840737680217463,0.151665081741513,-0.10724735740331752
129,0.012967426792370193,-0.004179515381167641,0.08357093551197015,0.016748893248169198,-0.04329013934456169,-0.021537906128723923,0.03886930462232796,-0.0952665484321629,-0.0563182765619368,-0.004342252451457748,0.13702162439675294,-0.10386260889086547
130,0.009457196397675999,-0.00449475441782581,0.0745363706530067,0.022067884635019526,-0.04328988630434838,-0.021970444493530562,0.0297821977669133,-0.09525498971019786,-0.05646683610800993,0.000150572852934,0.11463867162496302,-0.10222688540382455
131,0.008136007881456922,-0.009745089259159604,0.07104321719619584,0.029815221328501812,-0.04328893769288027,-0.017526996896303056,0.022793893476886054,-0.09432363298387068,-0.05482039842689457,0.004980010754246391,0.09239315947523379,-0.09948399368091077
132,0.00848720509321592,-0.012703179908985365,0.0699045604484315,0.030350223256376666,-0.04329681656156165,-0.017548767933121094,0.011825878632665402,-0.09036283576085392,-0.05150459304746746,0.009700632457810955,0.08484487298634572,-0.09711097550660369
133,0.004072807532568006,-0.013837076236797535,0.06504115095954476,0.03557590749356752,-0.043258640972065554,-0.022023068689955128,0.011999315857494855,-0.09134203383211505,-0.052044539813200195,0.015844100654404832,0.07555629669400307,-0.09201211744400281
134,0.003542739600379134,-0.022161655447642665,0.057842935850756616,0.04086136936774263,-0.04341502589939229,-0.021242816320571005,0.002605189374803687,-0.08855434159283385,-0.05193193581302453,0.02726686243831236,0.061536836476208064,-0.08680819101150776
135,-0.00018892485615048466,-0.028533645174093326,0.04783368121126208,0.04119879915568165,-0.04287224173295293,-0.023486016338316155,-0.000392188914522346,-0.08286501412610699,-0.051946326566018566,0.029598944473835934,0.044117076791829954,-0.08658989274440022
136,-0.001647139193690182,-0.032763744429417034,0.04200512195228447,0.04944439705769115,-0.04721725091095273,-0.02633935672387609,6.808319204150361e-05,-0.08236573482986005,-0.05194987912818973,0.040042984490357925,0.043308754327821046,-0.08245519582290614
137,-0.004731136591070363,-0.04185728047071219,0.041837417316198895,0.05020894529076938,-0.04761786734479885,-0.026016123336771054,1.4068929568035758e-06,-0.07791280222769939,-0.05201604873968879,0.0510851551654584,0.038753082929469246,-0.08622635767045757
138,-0.003605496559861103,-0.050524869481381234,0.03738145184760505,0.05546280542651963,-0.04764076439103689,-0.025607180305209223,-0.000445217668924877,-0.07348375240762128,-0.05130625481197233,0.06069778617480372,0.03837538320307527,-0.08171645048045147
139,-0.007877563652857186,-0.050810809571195,0.037766156494748605,0.06378682827300829,-0.04759459030940725,-0.03003758476613136,-0.0045167541071427075,-0.07291085088015567,-0.04562520303927727,0.06589485655843769,0.032996740472783226,-0.08198551796738565
140,-0.008124779463322521,-0.05586263229451963,0.03764682599267484,0.07100590138191815,-0.04771316302518045,-0.030273501408076376,-0.00572752822801182,-0.06759633909500455,-0.04328133392149831,0.07542265054344288,0.027928943555877,-0.08486745258613167
141,-0.017099014045764614,-0.06225767123517689,0.0375551344600608,0.08456449289038154,-0.0471916329379485,-0.030389344761663904,-0.0091335715618317,-0.06246768588822294,-0.04109280864197602,0.07789704796854555,0.02555043192551251,-0.08674101631870064
142,-0.02114204386775574,-0.07270673318242499,0.03809746768185831,0.0904977230213902,-0.05037447809619056,-0.02976242022781289,-0.008523589905251669,-0.06032226272815925,-0.03539363892582518,0.07962498520270284,0.02648040480870052,-0.08688150760942726
143,-0.020349349874001305,-0.07819557514702503,0.03442170153692773,0.09556137976737812,-0.05228108997870086,-0.022072529518106204,-0.008789603000752126,-0.06065724929898101,-0.03448776837723721,0.08546811475392109,0.022045974575284684,-0.08241941685295882
144,-0.02421688178837692,-0.08687977034439445,0.03329128460828772,0.09609181218035481,-0.05167754658895433,-0.017032839876002175,-0.008375175813750992,-0.060599155127250365,-0.03466182265464727,0.08664534462418094,0.021662584380603082,-0.08229082192388246
145,-0.03012541872203711,-0.09203258183324418,0.033488644642908766,0.10039454382987452,-0.0562537149199025,-0.0145602945410542,-0.012971532539523158,-0.060606203739121026,-0.029683328837834075,0.08679625105266878,0.016694078742233796,-0.08225666294458431
146,-0.028998969523519127,-0.09689713562436773,0.029044314607686156,0.10542535724759575,-0.05543983406630746,-0.012766978333238126,-0.012919449586333084,-0.06061365003540102,-0.025830422616538843,0.082244744491535,0.012691282407463096,-0.08205798335589501
147,-0.029710563413046,-0.10008606856191116,0.029362847347682346,0.11462822991436282,-0.046778100456915134,-0.01296775891208314,-0.012996268949266792,-0.060545759015901146,-0.02495606613508234,0.07685063435771561,0.013100148576793752,-0.08359478888658264
148,-0.022449936651048413,-0.09417954394549301,0.029434106253629383,0.11703165746299786,-0.04787783032951332,-0.012965194066851676,-0.013094330892701367,-0.06094782736842979,-0.019036256439506252,0.06891754272115098,0.012849918732395424,-0.08943796442679196
149,0.0003371945766973034,-0.09210021365008356,0.027970149253917675,0.11926028948293148,-0.0331530763789647,-0.007904720829872145,-0.012443191658025845,-0.0584893398139312,-0.017279697318361587,0.06674781699020306,0.013458492086045057,-0.09080625023904812
150,0.02222476946254405,-0.08977375313945911,0.019897515026476336,0.12122070660143301,-0.013101497972121377,-0.00420933443880977,-0.016203698420292744,-0.05591711297661197,-0.016594717074471785,0.05782360104401716,0.009659242247558833,-0.09396917418337425
151,0.04287469833399951,-0.08484569320551746,0.013092615759205993,0.12459359874713362,0.003474144705269834,-0.003141391662673479,-0.01420564605649503,-0.05635103591027094,-0.024790593171367614,0.05394542432730175,0.008535732660068778,-0.09932273455040215
152,0.07377548811077132,-0.07974146363462571,0.012500877089292959,0.125426425722076,0.024464733913763026,0.002187476847176126,-0.012856637818037546,-0.05624592307757083,-0.03025369445516765,0.046212224206231015,0.008661020002645521,-0.09956372062283005
153,0.09221713735197418,-0.07954091980349318,0.012549037526518274,0.1296426849663478,0.0427083167282451,0.007321281922948581,-0.012981036080912948,-0.0562871621637603,-0.03520721340819301,0.03167545744657607,0.008660821518053427,-0.09946043208767563
154,0.14302294820454103,-0.07000982688387057,0.012372257186591674,0.13430698452755646,0.1077339899430365,0.008966630708428578,-0.012631822871838078,-0.056664548004884276,-0.039229602921176956,0.026010168282305665,0.008672579893875291,-0.10055333013142008
155,0.17567566572574492,-0.061519917652862036,0.00644781933551706,0.1393357707723807,0.12944431390188357,0.00834037158466203,-0.008257929333307785,-0.06078189947015963,-0.03931945973395533,0.021124917569614047,0.008562262415412388,-0.10399582266489939
156,0.2642794128175141,-0.05712947357987754,-0.0018599283477591007,0.14202659422363925,0.1636147388627781,0.012944839973424523,-0.008717755679156117,-0.06202359757531309,-0.04997686347978484,0.01637556474339122,0.00911521064563299,-0.10598899497984082
157,0.3797412694871303,-0.05246046057100864,-0.006423766015227551,0.14589015338551048,0.20667800888684448,0.012923500961254941,-0.008938070628893355,-0.06498979072507624,-0.05739741397919929,0.011079933475314082,0.005812982382502577,-0.10811658966330269
158,0.4067333193378442,-0.0472186025693227,-0.008671154353488732,0.1535179126206569,0.3054076405176244,0.013015469597505203,-0.006419392549004675,-0.06751633049724613,-0.05562429760644812,0.008736177866395146,0.0045126967216661,-0.11154193386279106
159,0.5048258781082384,-0.04616939920003203,-0.008304713684749162,0.15812860690831537,0.3816301140073529,0.012978218801524746,-0.0007655280890195062,-0.0696250712890495,-0.06026355131369852,0.006030131859239725,0.0005051500239214093,-0.1123643350016881
160,0.5929367207787954,-0.04255123315378223,-0.008396647873886618,0.15908467763815087,0.4416526325448306,0.012989282480504044,9.237026991543596e-05,-0.06898833251328981,-0.060560948613921715,0.004091879628103508,-1.2886524116130851e-05,-0.11677484549048568
161,0.7103653877989109,-0.03774655748273635,-0.008354272180486512,0.15900452662588146,0.47476267374384307,0.012986515944395352,-2.9785340080342956e-06,-0.07349588943112603,-0.07066521529822524,0.0042830793430163215,-1.657583038767109e-05,-0.11700852262322381
162,0.7848790548741449,-0.033265376820094304,-0.00804670312561961,0.15927826256835426,0.5825389911822753,0.012987066215416463,-3.323702268874082e-06,-0.07836722831958409,-0.09275493518804438,0.004394742772199981,-1.1463078145126419e-05,-0.12228320125724455
163,0.8087799748222634,-0.03376023638795216,-0.003784538197209602,0.16394212798500846,0.6287949369803562,0.012987121007818342,1.5204621618312033e-06,-0.08318516465200396,-0.11780373949768286,-0.00022581762819730026,0.00011245560727413252,-0.12602290113288753
164,0.8860540701408345,-0.03207612403949751,-0.0043661198683044005,0.1706112813052926,0.68475749128041,0.012986867197923618,-4.929167086801716e-07,-0.08844962535346682,-0.13762251183569038,0.0001066973322911773,-0.000545720023815504,-0.12466636263132991
165,0.911120193057607,-0.028863914541023904,-0.0038579548081317163,0.17566037196225667,0.6849985752718608,0.012985743392943777,2.3494283228351338e-07,-0.09084725991887094,-0.22012887486416513,-3.3482785558506505e-05,0.0032063251269497306,-0.13041280611939837
166,0.9519677918007506,-0.029385089659683356,-0.006312629439712278,0.1808692286072588,0.6313746920229765,0.013000203674876315,-4.977596338838145e-07,-0.09347280893373511,-0.35139962696724264,8.835259874461834e-06,0.0011751892450239092,-0.13483582856937673
167,0.9681793713488694,-0.029263033551164167,-0.01183486665927477,0.18415051382892655,0.5239250917384364,0.012905785638683444,1.6550495803259015e-06,-0.09562925762018837,-0.49252329450440346,-2.5470708643232764e-06,5.703630588665314e-05,-0.1340246853121709
168,0.9767333407078074,-0.029312812919776807,-0.012512158407911091,0.18786636563140996,0.44390866492196773,0.013389557434889355,-4.414468026987299e-06,-0.09488092078468746,-0.5909848760716776,2.4909325647416617e-06,-0.004229798997968867,-0.13435898257979292
169,0.9550125362038737,-0.02927022342044726,-0.016514253312897145,0.18817937624430037,0.38842027976187826,0.0104810374763893,3.7436462626250742e-06,-0.09949558126312417,-0.7507054226805364,-5.930737476788509e-06,-0.008756138529173957,-0.12971880103923839
170,0.9073327094670399,-0.0289924186963415,-0.025396494765159358,0.1972524995953747,0.19702944342880568,0.008366288368321782,5.956607473809434e-05,-0.09958909056382143,-0.8443983103618753,6.698950473984385e-06,-0.009284929556774206,-0.12559260564532815
171,0.8466938554467803,-0.024711552859845158,-0.025704860575265928,0.20246163089969316,0.06474798308046387,0.008703506122098971,-0.0006013678468925959,-0.09879816484672319,-1.0442543989382878,6.463226891757168e-05,-0.014563837744247436,-0.12349069136653479
172,0.8222408600001766,-0.02528588949229494,-0.029798019124209103,0.21080922630350676,-0.06498431852420057,0.00865489124567832,-0.006175471556687138,-0.09472067698412072,-1.1684448981344981,-0.0006945299269745469,-0.01982411011237983,-0.11674965664958832
173,0.7473670204691728,-0.024777626838504905,-0.029129147366819267,0.21724799679038592,-0.13498990982448633,0.008660396264276162,-0.008986408508863982,-0.09557853561631766,-1.1620903067336903,-0.005099155222263099,-0.021474849504246513,-0.11172369463972023
174,0.6849156292956313,-0.02721395424851519,-0.029438360293229167,0.22428437837453855,-0.21826123706416362,0.0086162845379673,-0.008584981887516,-0.09340160868192622,-1.0948970116528547,-0.0022784017703287892,-0.024896777192617216,-0.09535191488077646
175,0.6199630856044689,-0.03267711150546198,-0.028856599921790266,0.23163837393089615,-0.32515599430525327,0.008936410292240942,-0.008670277562058735,-0.08451239750629162,-1.0449328566257396,0.0003595862195410487,-0.02613221668606747,-0.08394873054680387
176,0.5215464891940907,-0.033578509065078255,-0.03294993590431315,0.24147522859238738,-0.4210142396722159,0.006905948656108329,-0.008660457797559994,-0.0784622238423811,-0.9364675348758442,-7.205889732466269e-05,-0.025955046917067945,-0.07873765212611429
177,0.4574835960329064,-0.033461519402521074,-0.033498494289422004,0.25066900471278303,-0.42505628968604725,0.003926192765055632,-0.008653567173986723,-0.07376199186220786,-0.8527711919404963,1.7169015859785e-05,-0.025552484263334348,-0.06948757401656205
178,0.3414399875818249,-0.03339733406677317,-0.03348591657391442,0.2645385935340656,-0.4062188490659997,0.0043788444355351615,-0.008604897756090038,-0.06903283438742762,-0.7019867084566253,-1.017747813817068e-05,-0.021921910212396353,-0.05943808882078993
179,0.3162688178380664,-0.034225028402243056,-0.033479171344428016,0.2737658766261155,-0.385626270835218,0.0044252114563762615,-0.009220072419785326,-0.06242602322944277,-0.6158038219976409,-5.7316484676700736e-05,-0.02776578899100439,-0.04633073339846825
180,0.22541483240350835,-0.03808069361347886,-0.033393134763782986,0.2823651326832768,-0.3342247423709308,0.004100407913766272,-0.014887820217437502,-0.04977769126352726,-0.4949907200704056,0.0006834671902166778,-0.03222052935088098,-0.03986411961788314
181,0.16397600427020032,-0.037649394212755184,-0.03387199457844047,0.2852168445996122,-0.32595206711231556,0.008713911439421358,-0.01720274329285367,-0.0443810510056049,-0.4295991877366481,0.004809404010615543,-0.03773095703834606,-0.024730804665895067
182,0.10445304741893835,-0.03722549577466873,-0.030956151060572944,0.2984557905012855,-0.2928187509779113,0.008949898995951501,-0.01997156920978984,-0.033065430734734065,-0.38109822326166276,0.004085331902533927,-0.03883919181249275,-0.007147035863624569
183,0.0670731181515449,-0.04078889280318671,-0.02902891214426792,0.31165914537117007,-0.26060196462200014,0.014462598997335699,-0.021476454251951937,-0.02818793302908254,-0.2830875664861756,0.004876518371004593,-0.04248028017286103,0.006425092730373301
184,0.02371170287545688,-0.04189192822977488,-0.02932032359862078,0.32153910382238093,-0.2508932849271139,0.017745418512609284,-0.025386538697922737,-0.011640938321987504,-0.2430086443193265,0.001001624929584365,-0.047581833866042866,0.015651751287343536
185,-0.005405537839244478,-0.041942516273787984,-0.02929432394097193,0.32184326605420466,-0.2094628339478688,0.016794298952541295,-0.025979270792849406,0.0038353773927591113,-0.18493548934884219,0.0004864938419952792,-0.04757727815436705,0.025061453637282044
186,-0.02295786546503869,-0.03753090097802933,-0.029358293589512325,0.3398997679212321,-0.1758655386168087,0.020178593511534282,-0.02571919045280766,0.018398213870533427,-0.154046952727334,-0.008123298380426438,-0.047600310242154144,0.03928306715775686
187,-0.038308571266590916,-0.037037189142160455,-0.028524075288931253,0.34349177306726575,-0.1554280401230619,0.021887851841752445,-0.021389782967779797,0.033072083340777776,-0.12352139309333059,-0.013232757881878004,-0.04784311405886302,0.04442932862799606
188,-0.05718164440680603,-0.03301684493906922,-0.024954746489560805,0.3496222527300521,-0.13640540543241775,0.021566737573198734,-0.020789955235244975,0.04683531940942049,-0.07986781008473641,-0.017463862826389235,-0.04604015804813933,0.05318160669667684
189,-0.0705972432170206,-0.03349264854390828,-0.023374169250883613,0.34796265108201613,-0.12693630316167492,0.02164341073119381,-0.014787765691182989,0.05382588531512002,-0.07450281068862319,-0.01839160717185189,-0.03996435664994554,0.06081320364619538
190,-0.07511785150750766,-0.03389320861026301,-0.020435026602055078,0.3426284819908036,-0.11194061489597276,0.016619403186798817,-0.01316811676037762,0.06105010269619432,-0.02355899897787613,-0.022135172661204818,-0.03966825910835557,0.07432365018974145
191,-0.0843261655224845,-0.030400694910260723,-0.02130902441965988,0.34053564148269827,-0.09563214576867052,0.012903845915510392,-0.009888074025267531,0.07064047538287699,-0.004381315978599698,-0.02153245058139585,-0.031234758513171507,0.08305656034686695
192,-0.08806216582006458,-0.02915697126078861,-0.017653658147682882,0.33536624235832285,-0.08681703597679095,0.011617785773643263,-0.008422756905055284,0.08447949548746474,-7.509639109018083e-05,-0.021657014198924726,-0.03031242794813954,0.09385314663727529
193,-0.08780077317231873,-0.029273641161754953,-0.01263292339601522,0.33079234830647497,-0.08256342758028057,0.008079002834551584,-0.00876586782424587,0.09484450059116938,0.0054469241645129845,-0.02167620659503685,-0.025409110453049347,0.09519468218843492
194,-0.08789720804895797,-0.029114509735497757,-0.012425045449491042,0.3211338523488701,-0.07809886368104953,0.009226691772327843,-0.003968706312218031,0.10448982253662518,0.019094255299817744,-0.021579745978670104,-0.020876769276201895,0.09950297229820365
195,-0.0878005205751715,-0.024194894170543633,-0.007267547821982095,0.3022421939328359,-0.07443717493981274,0.005330227201437398,0.0008438085001864747,0.11508660547316317,0.02316327294049,-0.021481312117624846,-0.014457123116406645,0.10428631227538039
196,-0.08809234479825881,-0.019575831841871543,-0.004070354573605756,0.29097254652085786,-0.053982770006894006,0.004203233598100788,0.005735934383705038,0.1280144061158856,0.026532495868059575,-0.017595729999297843,-0.005056708946967126,0.10963553843394044
197,-0.08492409461530578,-0.014941444172508318,-0.002877359812169539,0.286978001734982,-0.05678700422586625,0.0043332149201545135,0.010591888823264551,0.1299526090391574,0.02529404547942502,-0.021936706406234966,0.008839547911039605,0.11121183875365047
198,-0.07573925858850533,-0.009801940141619279,0.0030589037581665356,0.28131971142135714,-0.05659420453304684,0.004317375432236164,0.015470297494264951,0.1300851312585273,0.0297205502888452,-0.023216318253471764,0.013001720149719872,0.10968864639835779
199,-0.07088472477699807,-0.008181378610826103,0.003592499284933797,0.26122296796182365,-0.05317024064930953,0.004473192284931524,0.020297946255581657,0.12897315991350228,0.0266102368522131,-0.026393860080967092,0.019979070327104963,0.11289695001438528
200,-0.06665494082020632,-0.008311845527548399,0.011061507609382026,0.24773228762162264,-0.05175638288133008,0.0032925113977603127,0.02528123445812325,0.13726735147283653,0.025939576703432537,-0.02600486151512808,0.03021861979141732,0.11305668789380932
201,-0.06704675992423852,-0.008497915063059878,0.01651874697656191,0.23925548933661264,-0.05199787133199508,-0.0024204317342529204,0.029931874221036374,0.13861726928268925,0.02559219830103013,-0.025597399382983107,0.03594258662834572,0.10843259208165501
202,-0.06691107022473484,-0.004010299086500052,0.02100863440932887,0.2208182457062093,-0.052160089275697034,-0.004597710780099842,0.03948023868813865,0.13854823669062782,0.021462381526296433,-0.03000518794969971,0.05523210467502395,0.11246069276423588
203,-0.06698298400781529,-0.004435461231023257,0.021482716280032378,0.21268741773900754,-0.05662968757926576,-0.00431551172602116,0.04329771144432029,0.13855714648967066,0.02033829274077006,-0.030282233063542368,0.060773308292380195,0.10803285363727647
204,-0.06682688384789583,-0.0030276305032408786,0.02564969115613882,0.2063961859649139,-0.05622878162947642,-0.004220349235189341,0.04452603536314095,0.13825892840935355,0.01683222433969899,-0.030325824985127828,0.062329316945525196,0.1084847955187104
205,-0.06731703196003425,0.0008207036651380468,0.024594045068238167,0.18839093196299106,-0.055941403760670166,-0.0044935636861772625,0.047810578032825984,0.14027349525054125,0.017454382559677052,-0.030294561816338998,0.06718878093206763,0.10717821305240799
206,-0.0630682478459686,-0.0025124516680372164,0.027537501888476746,0.17718267791109665,-0.058630572390179485,-4.426867328946129e-05,0.04950727081736416,0.14373914210619623,0.017180178495642663,-0.03030544519117302,0.0757027467868229,0.1025200551152528
207,-0.0627975359861471,-0.004440298615720078,0.029589272880236977,0.16820584889350582,-0.06138881631720869,-0.0047914386361399735,0.05550287657428414,0.13957334076122407,0.017623970947050406,-0.030302443035636593,0.08175292615870404,0.0945133831036407
208,-0.06227153248536337,-0.004161284579765476,0.02917403218429691,0.14919755382599298,-0.056787983678288426,-0.00417882858807627,0.05600574669330897,0.1386572640088476,0.013046006322508418,-0.030303154271315275,0.08648423829611487,0.09079424196543212
209,-0.05810294950045389,-0.0041586060019623014,0.029407323896407878,0.13486473104663482,-0.056396068824401735,-0.004348627989104251,0.06045476019675921,0.13452293156520742,0.01304845511946839,-0.030303006221330805,0.09132380019916753,0.08750015422575554
210,-0.05904384185982008,-0.0040571222710211975,0.02480662938715035,0.11655251507485766,-0.05183815487738212,-0.004415250943790502,0.060786041081487954,0.12960456093173045,0.012974317458983631,-0.030303039156605337,0.09651075850228075,0.08658341494844744
211,-0.05641051498530675,0.0010086875972781218,0.02033731270239197,0.11197867774374932,-0.051388389345773354,-0.003972188651442473,0.06480569450865035,0.12490254115491035,0.012901099633843961,-0.03030303484978065,0.09908152033720885,0.08223036195349041
212,-0.05406647156874496,0.004283618855314133,0.01420215862397827,0.10159039568644797,-0.04720700094127319,-0.007640432314115809,0.059012716023696024,0.11865294529106239,0.013438068531873884,-0.03030286242689668,0.0910033430799595,0.07322248274050863
213,-0.05445217180845058,0.005560507995845654,0.006450564422791693,0.09426910554315342,-0.047364996801080625,-0.012674305716295993,0.054610753119366334,0.11029481708144197,0.010173239376983825,-0.03030428794621415,0.08330655514537681,0.07305371614317342
214,-0.05438537443817842,0.010793044151525526,-0.0002311902939015262,0.08841480798460022,-0.050012956769135475,-0.017538492796984564,0.04888361202832836,0.10558831362767039,0.00883058255562819,-0.03029616000641817,0.0819986865124146,0.06765478637526653
215,-0.054393503438203664,0.015416129218073461,-0.009366958708647382,0.07415493481631848,-0.05237279337773096,-0.021795900753903235,0.04841762196502495,0.10353144667697155,0.004881281892250776,-0.03033450350758471,0.07987542550158358,0.06246240369864496
216,-0.05440057305773534,0.02000900426840959,-0.023274728020229597,0.07095017562392156,-0.051538559647408666,-0.02240213739352253,0.037762910629688846,0.10426109265161275,0.004294948787779759,-0.03017839278177445,0.05663139253896733,0.060785325268300765
217,-0.05433541540306122,0.024983212202320547,-0.028753763448331908,0.06737826355702262,-0.056052309162650304,-0.028079374427560946,0.022262083727682448,0.09985621217981497,0.003956969334698396,-0.030717978367115352,0.04635461171330981,0.05737596246694169
218,-0.05472370059529647,0.025230834090177928,-0.04230242963828703,0.06274985202463382,-0.056196077632724266,-0.030973260957336206,0.017170672472242413,0.0948106136750722,-0.00018511774141199706,-0.02637217058165998,0.026542572077702078,0.05629394737984947
219,-0.052373772830397854,0.02966488516520458,-0.047160281835178966,0.06170696766284591,-0.05696376563997132,-0.027611968624447536,0.011644216006545584,0.0860635648244619,-0.0012939310155594807,-0.025976014239333697,0.014189320800304727,0.05232930709815006
220,-0.05003261093449667,0.02903441632337138,-0.06530233812390628,0.052840414455100286,-0.06077079695875345,-0.02279926857464789,0.0019246528279987642,0.08593542642664878,-0.004835291097117099,-0.025901983378239304,-0.009939139020157058,0.042833698699338923
221,-0.04963248221573219,0.029995157553704705,-0.08288849177216755,0.04692485976979185,-0.062243228960826576,-0.014211644984811353,-0.009828620207497809,0.0797926005271758,-0.004101195108506029,-0.026398128892171233,-0.036053031960295155,0.03828477077486808
222,-0.056927591325229655,0.02494930162917722,-0.0852722142567105,0.038789477276778436,-0.0654914431663751,0.00018412355821738875,-0.022279039964208297,0.07829619271047203,-0.0047757261500901245,-0.02319551285671952,-0.04204643978675303,0.03298993258160163
223,-0.06671196125438336,0.016461806246224616,-0.09336335691153709,0.037417208758149016,-0.06438840273754992,0.009910271266890106,-0.032519003515094215,0.07285514240643766,-0.0005162203250363108,-0.014712885311080177,-0.050162697436388515,0.03026050981444995
224,-0.07152480484174757,-0.004491107082259081,-0.10289050326634573,0.037965845426673396,-0.06855698092977988,0.018723645202264827,-0.03693167124129303,0.06155847980731237,3.24742967238278e-05,-0.009109597278577223,-0.06474043010700002,0.028327381855623744
225,-0.07521577604283695,-0.01641614904865027,-0.11240925921148513,0.033847618065840204,-0.06932660549763173,0.045890934466804874,-0.05554316096275139,0.060721648960291745,0.0003365729207791552,0.009411041653531883,-0.06985813621597838,0.023156768081861068
226,-0.07796943492503354,-0.03549836804650616,-0.1171852202946808,0.02910989877096241,-0.06927232074672679,0.07199792767970768,-0.056686356220122636,0.05621029666114926,0.00479428309457235,0.016579056173187712,-0.08003729552025916,0.017868138349081835
227,-0.08277959025893973,-0.08730528364921723,-0.11766447132464,0.024241156336664415,-0.06925772391477719,0.09379532106141081,-0.07536359416080757,0.055359678105711914,0.0037898193362701977,0.03432999362243031,-0.0895184888249143,0.017473928360973893
228,-0.07890404425458032,-0.10041467087882788,-0.1218605625556025,0.020776355584612067,-0.06926594867791719,0.12698981402188061,-0.0799212126423258,0.04547613756082198,0.006828353576456323,0.06201946930330317,-0.09971528240765803,0.012935956403965691
229,-0.0796163106660372,-0.16480929590620025,-0.12084309869375814,0.019694115294931997,-0.06926541077605428,0.17171050013659594,-0.08896422832392814,0.043461419769067984,0.0063445203586644785,0.06655427986479436,-0.10678314571564895,0.013195201659242166
230,-0.0794793808959242,-0.21510940204968057,-0.12367235429809026,0.01401351904216823,-0.06925554452306819,0.2118321526590989,-0.09315585244276746,0.040986989464834984,0.003973486161253241,0.08546302093578698,-0.11134327546630374,0.011941697612260918
231,-0.07949892513592141,-0.26423210540362413,-0.1258187012908327,0.012336114124188741,-0.06929696968948475,0.24603838898218797,-0.09802286914180712,0.0385181549714517,0.004462196431810911,0.12284936251958993,-0.11618453400273936,0.008542226987347062
232,-0.07949604038532758,-0.32967922403904265,-0.12547399902821652,0.01258772075463121,-0.06916163173767124,0.3019331934583424,-0.10339252616359804,0.03939014562703788,0.004261508589335182,0.15858199647503854,-0.12115919054571025,0.006680852780938691
233,-0.07952907993550468,-0.3786071045880889,-0.12552886496031404,0.012548872312183906,-0.06946296642411352,0.38966650606515013,-0.10375288732738024,0.034907477586005,0.008796650113554374,0.1722079416866544,-0.12115490802980206,0.0038411003188526948
234,-0.07928761769421733,-0.49313973012583323,-0.12552578659189173,0.012552095044542091,-0.06483242911860523,0.4522711819633326,-0.10833292268584802,0.03469142759358699,0.00943506802969351,0.20696506573009282,-0.1213068904386258,0.004751983434464705
235,-0.08088110489268158,-0.5536976636964831,-0.12548222242324317,0.012549918696502075,-0.06506173526954015,0.5221231756362035,-0.10810323354709002,0.03400660224581766,0.013162532291829222,0.23347011417819824,-0.12078222654022601,0.0007438203785342964
236,-0.08590830484194104,-0.6028068277917624,-0.1258018346417264,0.012570820835590947,-0.06463948086214401,0.5868303781945801,-0.10845452284270121,0.030150218979338016,0.014872175669898176,0.237830419052966,-0.12370931917920935,-0.004162091457293541
237,-0.0908999035436266,-0.6682268460034205,-0.12376812534051294,0.01245449219114848,-0.06663045129696799,0.6307475456419186,-0.1068862087038048,0.0286392498901427,0.017838061001305472,0.2176249222381981,-0.12310719666918443,-0.00881128804039082
238,-0.09231660095012709,-0.7401389103464425,-0.12137605937237432,0.012987185137123068,-0.0697976316434964,0.7322294906787591,-0.10111061388531378,0.025851002883515235,0.016804119555080876,0.1651030427207267,-0.12131441472301024,-0.008622459600379382
239,-0.09179937466864832,-0.7777778608506916,-0.1185407905525606,0.009684423755306953,-0.0687165220049679,0.8280438116503966,-0.09943291370125198,0.02359164493649851,0.021156295954361692,0.12274857361600608,-0.1174578378325373,-0.00840726964384217
240,-0.09627241578101196,-0.7678908922276714,-0.11698240814612941,0.008169323694417136,-0.07282382334697925,0.9068975989220404,-0.09929193573634969,0.017781110255117135,0.02165936181572138,-0.013538301829883971,-0.11684288729989627,-0.010388287556470886
241,-0.09618267316975558,-0.7473915977760485,-0.11710903099194153,0.008403050119698564,-0.07366854007405697,0.9995243100993347,-0.10344379899356439,0.017475242576782075,0.02159280415076622,-0.18104630242600964,-0.11648210498467974,-0.013879460821783663
242,-0.09609457691453213,-0.7147928642264919,-0.11704798279526633,0.008393829737834167,-0.07359892459843141,1.0078113015251466,-0.10837650341680317,0.01289968550773394,0.022311112701923992,-0.2982512443527468,-0.11276766588998412,-0.009737406608651994
243,-0.09737766532220796,-0.6694693421149994,-0.1130690689750961,0.007849584599674912,-0.07358703048281193,1.0130773637621016,-0.1128488592554066,0.013077195744764519,0.027521648562330827,-0.3661346530542333,-0.11895080117930475,-0.008857459821497566
244,-0.10293572301568968,-0.5749088935229563,-0.11852828466773976,0.003777432118424502,-0.07359529774981642,0.9536711004561541,-0.11219770010776214,0.012953905501883214,0.03267666122218072,-0.4577722230349122,-0.12116664088029523,-0.004635284596727036
245,-0.10481972691073374,-0.5207194585952521,-0.12299111132723457,0.004208737033509591,-0.07359244603492907,0.8958613046827154,-0.11425638247586782,0.012995908039519641,0.03489530859873917,-0.6149998901207695,-0.12348878318397295,-0.004376240522240226
246,-0.10466732328356426,-0.46757314392722427,-0.12766544434978983,0.004584166187887565,-0.07359321285455919,0.8225008735430602,-0.117304550376116,0.01298704817258181,0.03469389906318607,-0.6031301499310904,-0.12863002750889138,-0.003800226787809418
247,-0.10432453152558624,-0.37656248079026516,-0.1327535670417317,0.0013682689486146148,-0.07359309211978403,0.7638693788653338,-0.11676419818350935,0.01297856300003784,0.03432836409636416,-0.5508087726158792,-0.1338545248243473,0.0004372485776753195
248,-0.10873810856712847,-0.2999997824264481,-0.1341589556964753,-0.0002453075726251086,-0.07359291832461297,0.6978765743926786,-0.11700391413030858,0.013015513051473478,0.03888990214776639,-0.4623399053884302,-0.13416179744759665,-0.00019324645174538367
249,-0.10872062693655576,-0.24860462898755484,-0.1336380937985275,0.00011929063947568511,-0.07359341556412546,0.5841412714572588,-0.11665488130002584,0.012926070079466622,0.03890219135694661,-0.5781371300119452,-0.13900069759299571,0.00035264289609978814
250,-0.10885762654804867,-0.1828524898638357,-0.1381187501746176,0.0001147906338328633,-0.07359347201173183,0.5196676989995999,-0.1212783351848282,0.012916049864009625,0.03896433454519955,-0.6067556633446607,-0.14400720407833106,-0.0023396000678889304
251,-0.10852540828874487,-0.13648524135382042,-0.13849005718973165,0.009589017364359527,-0.07358281438277306,0.39397957248959375,-0.12110131395847701,0.008347216142459845,0.03910258603680628,-0.5328875668703836,-0.14731556952080055,-0.007901223299712132
252,-0.11042643718288317,-0.09584441527622747,-0.1426598009574499,0.011673411291192776,-0.07366748291571477,0.33168449588315874,-0.12144556137256536,0.00878111206620107,0.038240087473613904,-0.41551921483043697,-0.148733875316543,-0.008815131241121814
253,-0.11537452544434836,-0.06435522550303437,-0.14240253765898325,0.008241312859426917,-0.07319304894394145,0.2697285200208188,-0.11984508424417062,0.008590587890768319,0.04381226256507028,-0.3848357357324742,-0.1544532454058567,-0.00860769640779961
254,-0.12056310762069192,-0.028542461011887996,-0.14046666694360366,0.006181661793538596,-0.07601520630956647,0.19867145139884712,-0.11456894073348367,0.008819743219539803,0.051504020496072854,-0.28399535744881554,-0.15646574706804858,-0.01337627074329088
255,-0.12111120375254994,-0.011934372698293266,-0.1351693281693251,0.004278313850041167,-0.07767212209763309,0.1453436220797827,-0.10966373104052277,0.008057045206213717,0.05176504985304936,-0.21456595219340113,-0.1519995434021462,-0.01897648348937094
256,-0.1253937056098507,0.01339719370273233,-0.13111217538916695,0.00090743822189498,-0.08172512471657593,0.0844382783469623,-0.10526502544758176,0.012576408434924576,0.0561468507922436,-0.1967403196745966,-0.15149661843756163,-0.02811542289549169
257,-0.1256302514978736,0.040668803118402756,-0.1220332139413296,-0.000159645116960299,-0.07842109230610479,0.06275770204591762,-0.09611025088337127,0.0090215598672994,0.06099736917166279,-0.15166034094851397,-0.15150137630836055,-0.03064730204016811
258,-0.13073204738436173,0.046121636887992305,-0.11703094984302227,-5.411837366352156e-05,-0.07798447268011877,0.024139338299175094,-0.09089828875801559,0.008620627319172776,0.06612941134427452,-0.14084874801205502,-0.15150655985295342,-0.02978737993255419
259,-0.13426185780353905,0.055202549792420695,-0.10838586034003203,-0.004381141421345943,-0.08264664483636448,-0.02499777690461799,-0.09046649253172001,0.00412436693391099,0.06930775712204952,-0.10196844918219788,-0.15160665010671842,-0.03343114786767557
260,-0.13351531888865206,0.060547614786686514,-0.10789387768430894,-0.004795109789151024,-0.08114065006675907,-0.029521042133987648,-0.08619924311603,0.0034663543606032483,0.07117174873526007,-0.08166712558366915,-0.15106468455056718,-0.034801165414383675
261,-0.13588124324834444,0.06897557790604686,-0.10478994160129906,-0.010469193596218956,-0.07748410449972373,-0.05140983684912809,-0.08634697929687875,-0.0005961685086360014,0.07410706279732657,-0.06623743113852032,-0.1543079269620018,-0.034620582769229816
262,-0.14111047861914455,0.07357206783639583,-0.10040449384389272,-0.012540564903542507,-0.07803768680325468,-0.06794580638070893,-0.08879131807468986,0.0005483951230081994,0.07308892588378295,-0.04733077498107946,-0.15566336458134392,-0.034642267585880196
263,-0.14510788416737716,0.07530117975808251,-0.09555790438822921,-0.014783630398538358,-0.0778659604420294,-0.08233057674756172,-0.09122665775294644,-0.0028233479625470724,0.0774013974514266,-0.035099522137214886,-0.15962702397717524,-0.03444548593521928
264,-0.1544171030099157,0.07808968634888837,-0.09634300126495034,-0.020372269196327855,-0.07803612350901432,-0.09125621673660646,-0.09093750122805962,-0.004762366669590127,0.07795648895029943,-0.025208629054114463,-0.16019259129356933,-0.0359994232783019
265,-0.15487921379202668,0.08368417227520791,-0.09624291896665083,-0.020808880763250038,-0.07766805980542188,-0.09092620261801035,-0.09071237671655184,-0.003801334051423456,0.0781845039246603,-0.018564607953542537,-0.16015210558274512,-0.03766140839647401
266,-0.15924124397449035,0.07947153493484681,-0.09624370590207411,-0.025161362444498358,-0.08227911745118788,-0.08980450631199897,-0.0952875717400297,-0.013044676663637593,0.08330843427001156,-0.013626873605645368,-0.16056902080263416,-0.034560793318893154
267,-0.15970337614382538,0.07924357333519667,-0.09568159931619864,-0.029480563270703402,-0.08217436767222475,-0.08391646923849788,-0.10022559995910259,-0.012717069463782451,0.08798284270391417,-0.012894614531281504,-0.1677659519160953,-0.031793826051991464
268,-0.16497639445605522,0.07410938264143414,-0.0926384052946065,-0.029271438580762473,-0.08227833423552515,-0.08233285143222141,-0.10423455063539745,-0.014020285511109013,0.09335374243471947,-0.01288503651753336,-0.17393414211243582,-0.030354831201837053
269,-0.16955813850765009,0.06956421011824682,-0.09647266560431779,-0.028969755751107523,-0.08226065253794797,-0.07939682153023347,-0.10382099864251378,-0.01776629385983997,0.09528694066658416,-0.007751214174951667,-0.1729876962125478,-0.026704174234031066
270,-0.1740644184523287,0.06481665475665956,-0.09817333170713659,-0.031402833289139793,-0.08216793680198521,-0.07393164137116545,-0.1038037848793706,-0.017198601548128318,0.09767057452454307,-0.003995642751544167,-0.1731940745020077,-0.02165401220460083
271,-0.17950613942340207,0.06012180019546639,-0.10095980023069158,-0.03382964709615552,-0.08258962674911684,-0.07358629861607306,-0.10435634289747045,-0.017364415859604198,0.10708779519760277,-0.004448391797362725,-0.1731510101718873,-0.02140731929042739
272,-0.17935932678742678,0.05542417748066171,-0.09975850189458371,-0.03333643496312024,-0.07925793292281771,-0.07367463686264479,-0.1004819833617812,-0.017229653428714155,0.11245431966600669,-0.004183889154521406,-0.1731643254811719,-0.016194891121428093
273,-0.19252925142239374,0.050700513950298766,-0.10468782326053765,-0.03366425501200196,-0.07386558162100429,-0.07271491603285678,-0.09945626215457784,-0.017512219768943148,0.11729892480551134,-0.004804912694079337,-0.17322399148152617,-0.011604364986645833
274,-0.2015777759639042,0.04600989670235894,-0.09620848954153001,-0.029271271821428795,-0.07359240772800141,-0.06920193723630434,-0.09956563389379045,-0.012969568464113287,0.12237326697283281,-0.0007544080656100693,-0.17252016034132467,-0.0061684121618550075
275,-0.20507362967138262,0.041630791528294984,-0.09161800082052712,-0.024992687687643792,-0.07400053526522156,-0.06700415686471656,-0.09971774528159316,-0.00843283767516204,0.12565248744358457,1.9561414651700316e-05,-0.1671691243036411,-0.00456351636692886
276,-0.2063947263523844,0.04192274575129969,-0.08681135647028282,-0.024452863998197943,-0.07833270197750468,-0.06701979425154321,-0.0983462852502853,-0.008920636967170232,0.12714016853261162,-8.257601718557235e-05,-0.16277074473644426,-0.0009559350519453926
277,-0.20959069553509818,0.041839707401077814,-0.08189896480939998,-0.01923680630484615,-0.07788888161376316,-0.07006053088289435,-0.09655716854549269,-0.007399279188493687,0.1325464106916865,-0.004642380578126773,-0.15546695042141853,-0.0005460643238045519
278,-0.20935448712862775,0.04173478334471076,-0.07896973343869541,-0.014645565977000615,-0.07751898980824988,-0.06545757322041863,-0.09840811331343334,-0.001972209158067223,0.13733847189854387,-0.004277364736400641,-0.14458396468603518,0.00832067674118224
279,-0.2083631066498244,0.042290706536649396,-0.08034423414325707,-0.010057298613235571,-0.08070721553995903,-0.06491019338817645,-0.09190885448820314,0.00224809341824626,0.14211263525253,-0.0040004047651119624,-0.1424712758488897,0.008706786958153565
280,-0.21665430770476574,0.038569203133626294,-0.07337290803753126,-0.004832018179894525,-0.08248666923617091,-0.06498502868428489,-0.0909895171426443,0.010842533038148753,0.14713838871334634,-0.006574927749200333,-0.13904683807278187,0.01403472625985319
281,-0.21756454558740837,0.03754980080100227,-0.06708259490854969,-0.0043125595720030045,-0.08222094259104021,-0.06424058645629548,-0.08749233619843369,0.017147870135076546,0.1473892229407123,-0.009111218576449252,-0.11112356055183359,0.01748309350411286
282,-0.22229884149828757,0.03765765708192582,-0.06695292464284154,-1.941424309606296e-05,-0.08225133626273012,-0.06014848801215638,-0.0779536057996684,0.01730922911447586,0.15251738773837883,-0.008206927555458652,-0.10685002531300897,0.01827383670665436
283,-0.22601681419350067,0.0376599044527363,-0.0622415012613995,0.004694785705657029,-0.08225773375931879,-0.06072230277238736,-0.0736602506540694,0.02226632968364033,0.15769280453576623,-0.012628959837442133,-0.07758447247916687,0.026438760939918232
284,-0.22712318866509237,0.037670534159728826,-0.0572129385204622,0.009180405613031588,-0.08220729555568403,-0.060608013852871075,-0.07181040611722793,0.026712104767216856,0.15992971783275953,-0.012958872066666976,-0.04032042599977633,0.03329647846702744
285,-0.23069745930172786,0.03756862567348907,-0.05514306543719824,0.01552999294664818,-0.0824958715303273,-0.06049818919630154,-0.06414143460709752,0.03377115658875863,0.16443703010347183,-0.013608353801549997,0.0022286766776073,0.038350635473358326
286,-0.2295498973320573,0.0380734215211149,-0.04776894223628537,0.023443259718986927,-0.08058773008577692,-0.060948003241111964,-0.06392135163218327,0.03928665809110271,0.17602196112232935,-0.01667714740779182,0.042637020961357144,0.03877684891330061
287,-0.2332770586506626,0.03499294008513393,-0.04400259613563534,0.027438478972041432,-0.07468398006884504,-0.05654720860149931,-0.056673711585793186,0.04165164700907964,0.1773429899365629,-0.01275637494285935,0.06437782738183336,0.043307421761822715
288,-0.23421425029159593,0.033240043390881366,-0.04627049124847711,0.03292766203233142,-0.07384667236166811,-0.05645218314993995,-0.08502644649875621,0.04320473715021467,0.18174971345951596,-0.010916694526901643,0.11142288817845335,0.04360494468778037
289,-0.23815873195114964,0.033501884621451615,-0.08325697612560858,0.03306025281288903,-0.06972965271392954,-0.0609630397235682,-0.09230201454770112,0.046957212707671565,0.18210184690818731,-0.008285148757278172,0.1402191365833478,0.04825085786766468
290,-0.2427799461548049,0.03347278054379941,-0.10036427251122074,0.04175574062750992,-0.06925836549920383,-0.0602163864458144,-0.155106355176988,0.05188156023405088,0.186156770117925,-0.008723891475309425,0.16023075670248127,0.046254297416213085
291,-0.24261220088103547,0.033496465521877,-0.13326499733444783,0.04641558395874392,-0.06938460804016378,-0.06238949307976682,-0.22495808749311064,0.061791940659684824,0.18885682686809216,-0.008649953073246943,0.15423689911592212,0.041258058027900175
292,-0.24270302270933514,0.033261922936787584,-0.2002586186489897,0.05122972436832448,-0.06797271612917145,-0.06522421742047506,-0.3227252692923882,0.06990327441118442,0.1953973109915512,-0.008657962787235749,0.12028111140672898,0.0359089653008388
293,-0.2426568914406189,0.034883517105675235,-0.2331317347358145,0.05593404506953245,-0.056676300700467454,-0.06530485871140533,-0.3878270138378095,0.06897306694417198,0.19691766216447468,-0.008657859581586087,-0.011241719952345493,0.03476971575650448
294,-0.24274404162035776,0.0380926587726104,-0.35868782265038673,0.06041691023691358,-0.05164423259881667,-0.061453229182592425,-0.46194157550558784,0.06979418654863813,0.20222337668909962,-0.00866229941363679,-0.16393665880312178,0.031151543956177655
295,-0.24243148846434504,0.03752862238873851,-0.3833878680193836,0.06609824380334413,-0.0497140016635527,-0.060459843449596005,-0.5781127825266064,0.06630986372776006,0.20744574081033246,-0.00863312269430229,-0.32291231906209983,0.026155330906208394
296,-0.24345346678031973,0.03779349800871314,-0.482879998801573,0.06399042751920994,-0.04444760950789251,-0.060537790799422064,-0.7493963751347312,0.06546111089982914,0.20773394464516481,-0.008774055137232221,-0.4682570641485702,0.021319183117107038
297,-0.23483660056210715,0.037344787047171736,-0.6567911217811856,0.06245021369813476,-0.039375676081876546,-0.05598193097973902,-0.8921107796624959,0.05750386888219972,0.2123585687809689,-0.008191294949283175,-0.6199377249163838,0.016483187464445048
298,-0.2342852297235225,0.04180251618691236,-0.7756953120811151,0.06286626845526029,-0.03893510360129489,-0.05637760848775285,-0.9894799651731081,0.05201004339631505,0.2119673885200811,-0.012021437252839192,-0.8461178106716164,0.011634545555816058
299,-0.22943899529400774,0.04208558651603897,-0.954565261290081,0.05407845700909949,-0.03856960585593482,-0.056313337799021,-1.2020949755727837,0.04714409198890614,0.2124050308492593,-0.013103415261839092,-1.0983996048195364,0.0068148585062569175
300,-0.22457458973993744,0.04663394002723123,-1.0421218644182586,0.04556846565463576,-0.03457053051582421,-0.055969657072570164,-1.4497305939154759,0.04226474940463711,0.2104605129533813,-0.012984886221858203,-1.2633972168230405,0.0018771844347191136
301,-0.2216249727875495,0.044601737671890324,-1.1509585149955208,0.01957339113490417,-0.03241227196734099,-0.05861217225175609,-1.2409143627833945,0.03766210860261289,0.20501857443952903,-0.012980273040511407,-1.4840512737052682,-0.0025937807877543365
302,-0.20633902825348313,0.041042616091835536,-1.2564469233503974,0.017196611948742738,-0.021672763370614977,-0.06432503061918564,-1.2007259993908737,0.030963571332553685,0.20079072506390486,-0.013005096494351293,-1.5869868421111335,-0.010752613273910975
303,-0.19578308284477078,0.04449126071914104,-1.3363795941625045,0.012305407156779365,-0.011918616706212403,-0.06481391731902121,-1.274265164193708,0.020198197506029154,0.1917054617061157,-0.012894709228678166,-1.6941237377881047,-0.02130024743666253
304,-0.1909604662550699,0.04636666060256222,-1.4274897566088491,0.002157838409871171,-0.0048342880900625156,-0.06924153073436581,-1.403069503793976,0.014396263646209866,0.18622789469789836,-0.013421197197731464,-1.8961876166110148,-0.021750565613590313
305,-0.18096470286531682,0.04569819537587922,-1.4672926989537611,-0.007042469833752145,-0.0045875230785912555,-0.07378211582091215,-1.3971937582179408,0.005577294746507128,0.18100558443023312,-0.010249503475063333,-1.9678008719855278,-0.030880580112034265
306,-0.17158121372475957,0.050134983168320844,-1.5146981949002434,-0.016568885821298018,-5.8356481012420726e-05,-0.07349696058425964,-1.3133348840783818,3.58283162001545e-05,0.17271390175717574,-0.008521901589507224,-2.0373893407368624,-0.030433657822526244
307,-0.1666590516200378,0.05007327515152271,-1.4599127933556424,-0.021201346996910807,0.0002503041809838584,-0.07371262733079029,-1.232920788432579,6.898527636056512e-06,0.17152334312828424,-0.008385263773260007,-2.1576825671714825,-0.028119187756412437
308,-0.15684202255004645,0.05100532668700494,-1.4263870373264818,-0.02689190731719791,0.004756150349401724,-0.07313642223358122,-1.1295093985244058,0.0002048601501530017,0.1578426510810084,-0.012916989813127342,-2.178504737670365,-0.029842892089332017
309,-0.14806968932806464,0.05492318952932638,-1.3569081180751144,-0.035067723003876346,0.004195876927488913,-0.07639131842453596,-1.0484864790588642,-0.001473104533389354,0.14838927401864643,-0.012923283681328774,-2.1754419100222284,-0.03532070508627618
310,-0.13591248444182352,0.05384547712900915,-1.286293943673491,-0.041381528051399434,0.004361423430492199,-0.07782493027521618,-0.9375301052455691,-0.004359389947607772,0.14397803596911793,-0.013030495129713908,-2.0790788204763966,-0.03491435916592459
311,-0.12669892173526126,0.05709848525800275,-1.1690968428355353,-0.049225171706332074,0.004330234173041162,-0.0814732720238488,-0.8582326463145273,-0.006876544969427587,0.13976080628901616,-0.01289297780653057,-1.9150657299885563,-0.030819029630808688
312,-0.1205932727576979,0.05840003896167616,-0.852177041812623,-0.05044263343341034,0.004298840282828976,-0.08643384126448239,-0.7765791544818677,-0.008938981579450483,0.12592127208189682,-0.013398772737876914,-1.7963820264030255,-0.030284612599934
313,-0.1029729221235439,0.06221064899555534,-0.628675465957523,-0.04990236660045217,0.004414903592323618,-0.0910211210914837,-0.6887828213860803,-0.008619707487641792,0.11613981497847503,-0.010386214067842618,-1.6144166913221076,-0.030360031854178387
314,-0.08835414468295313,0.062785823586504,-0.5585322889009668,-0.05428069578768423,0.004243983277786367,-0.09143795671485075,-0.6470406067716709,-0.008658361582312918,0.10632872614749633,-0.008267011009879225,-1.4908951934683827,-0.029579118348544268
315,-0.07463582839942129,0.06275226747924649,-0.5184892667200153,-0.0540663305411573,0.00887054556649214,-0.09682722277624797,-0.553728245538109,-0.008639148440198093,0.09642162751665204,-0.009042098367980445,-1.2791933309806678,-0.025430236550901892
316,-0.07064706132504663,0.06299558352235982,-0.7262738607834222,-0.04980466216628347,0.008552291920294072,-0.10143164877506335,-0.536676533673555,-0.008851102416724294,0.08818052485818038,-0.004415916198211406,-1.1047705342954355,-0.026501251897307017
317,-0.0641342718669636,0.061146963754167075,-0.8694486315807545,-0.05064378999758159,0.008697442701466124,-0.10673591378940439,-0.48241498090561225,-0.007325037705440034,0.0855218751713927,-0.0041659825700676514,-0.9005096761592332,-0.02345095974662668
318,-0.05709333627875067,0.060051350710758525,-0.6920299605987832,-0.04818969433006499,0.008619015265122147,-0.10857232813513253,-0.40094360488758013,-0.003769315791685156,0.06925616628798559,0.0009725285045105755,-0.7570870569140692,-0.021384882549986665
319,-0.04716833884650885,0.06323233901556577,-0.5227114254396561,-0.0459938670734342,0.008786715350940338,-0.10782312722975446,-0.3537016628020765,-0.004885261466366463,0.06120822226086672,0.005978082923562613,-0.6488834589312926,-0.021592569879407532
320,-0.038820185715259775,0.06265040240347242,-0.18201725113610875,-0.043412036392792015,0.008205015605424436,-0.11241353617311828,-0.2973045010709217,-0.0011249068226588722,0.052183429381364374,0.009024999540933921,-0.5233075530569774,-0.02183345411132135
321,-0.030841817511663566,0.06283705575255151,-0.24363398481101034,-0.03805086976873049,0.01244589429005696,-0.11265683234135528,-0.256204288962122,0.00023849594819987845,0.047078509147710224,0.008574445807398239,-0.3918915867235436,-0.017220108822908524
322,-0.025341356361404,0.06268846631738116,-0.4327344616160086,-0.03763580377905812,0.0129914570106952,-0.11792560688719676,-0.15059901109649454,-0.0001180126442898216,0.036732703779440906,0.00867420783584295,-0.32946233623318694,-0.01741445318538097
323,-0.020712908256064602,0.06739189540133941,-0.16742435374351625,-0.037651919189572516,0.012743820310058612,-0.12153122925122162,-0.11245718431668222,0.004453523089385018,0.028898477837033858,0.008655574348955699,-0.20768905050966754,-0.01719780779082172
324,-0.01588496857302697,0.07138798937535498,0.06196798708341011,-0.03761276179650231,0.008216199129302222,-0.12114449109900481,-0.09408530622692095,0.00498128567200938,0.021617640487600415,0.008658177681828604,-0.16309009222155688,-0.01778495367570401
325,-0.012402902536478789,0.07112290517865177,0.03996067675667038,-0.037955992674447527,0.00909535303672815,-0.12114407210256295,-0.028470977147906636,0.009124532721249513,0.017001196608129834,0.008658054853182655,-0.07735702436183933,-0.0146566032393802
326,-0.011353929090150145,0.07075653582402304,-0.017179836788057096,-0.035781594750870685,0.006682366887101295,-0.12154160667352197,-0.006383374945162437,0.0086593474250484,0.014518097027869813,0.008658044713237579,-0.029861266821703362,-0.015450708572594132
327,-0.0056863270483654875,0.07361330084161664,0.013971598838969855,-0.033098784875591314,0.00395709132325577,-0.11800672757496182,0.022750898778485972,0.008133593603862753,0.009377426905807736,0.008657605352984946,-0.0028988797865513883,-0.017651246299965825
328,-0.003959922491971776,0.07558186374902648,0.026520003353574434,-0.03355325539534979,0.004383993884015476,-0.11272958663374094,0.04223490607888891,0.012165184635825239,0.004390170776035371,0.008660072829881422,0.0038290730049380522,-0.017179397860229588
329,-0.004222532361001832,0.075274863526634,0.0710277397741615,-0.03343718542848403,0.004368433393106243,-0.11254111086795175,0.04961513826505266,0.009746430850061353,0.004167975854653706,0.008649150778931594,0.042330813445366676,-0.01736844775825743
330,-0.004179719719828237,0.07531523055919434,0.07933052465172996,-0.03350611755141266,0.0042641282514886076,-0.1131259792694541,0.06856056072525213,0.0044219224278490964,-0.0012591819019507518,0.008690678568843023,0.06765085885760452,-0.013079345843276071
331,-0.004183940398353783,0.0753060259773582,0.09302131911355169,-0.0337154889799285,0.0038417156982745483,-0.11704912821885563,0.07829227320159282,0.004364727468385594,-0.004317585825008878,0.008561007714522652,0.07652068599020188,-0.017861207858959584
332,-0.004184380821644675,0.07540738033025882,0.10157076021232327,-0.03788160072939761,-0.004947216771026043,-0.11852286634343182,0.083237461336287,0.004276269604239143,-0.006349260235411865,0.008816783499035096,0.08473254984399521,-0.01690943355309954
333,-0.004183991046251043,0.07472926679451825,0.10461089864344231,-0.03854233156312572,-0.005062427482669612,-0.12124777164356133,0.0869510813140619,0.004551913622273675,-0.008586125819945318,0.004185403222823903,0.08890472093880815,-0.01897845463445286
334,-0.004184132482646306,0.0789747806148337,0.10639327071922944,-0.04387532715008399,-0.011091566782758423,-0.12507859828403353,0.08648131060928728,0.0028574787423780177,-0.011832665505222141,0.004411222564035314,0.09452962628553699,-0.02424885550681585
335,-0.00418409241481426,0.08452272116766431,0.10904479734685614,-0.04826631508801271,-0.013224108809443434,-0.14420556311352678,0.08660287217087295,-0.003052556658428074,-0.0131166742538511,0.004378635874444261,0.0949307405735268,-0.02885302334571626
336,-0.004184102155167957,0.08321616579543299,0.10920986269851608,-0.05360205941335137,-0.013055138924973713,-0.14755938780852282,0.08657506656088271,-0.004081575119871546,-0.013001096786922833,0.0039190633996730295,0.09955650869143513,-0.034181892647017535
337,-0.004184100100371924,0.08694741804277925,0.1050298744931679,-0.05415054820367783,-0.012645094023628626,-0.1472205342112399,0.08658252187032976,-0.008015067859062964,-0.013249493930312134,0.006877471578723095,0.09503086799049053,-0.034557621519999804
338,-0.004184100463468321,0.09193327367645937,0.10483013300948044,-0.05844871047990875,-0.017152439232932432,-0.15214163584048737,0.08657748214610977,-0.008686351422212534,-0.017911640619407358,0.008504834572043202,0.09469542627483057,-0.039258200722075406
339,-0.00418410041574577,0.09201887348952995,0.09594430910841287,-0.05875203330206446,-0.017270630279980853,-0.1568871251847527,0.08656518719856143,-0.008569238903284433,-0.015805054588303013,0.012214584104408897,0.08959347537825255,-0.04341036880994161
340,-0.004184100372883683,0.09205628498385043,0.09584409014394348,-0.06297334187194198,-0.017342525721729694,-0.1620650683173554,0.08675215829936296,-0.009887050728461083,-0.01268112848636182,0.013059792340945876,0.08269644161099493,-0.04412117334843345
341,-0.0041841008025599825,0.0921254002145478,0.090925382349808,-0.06384911585729613,-0.017307209592406243,-0.16494626416996688,0.08535217466524729,-0.019242945458141616,-0.012615215730575627,0.013005148201234872,0.07461534056431515,-0.04940306197730093
342,-0.00418409818536882,0.09164317547909716,0.08387252847891534,-0.06739295025634513,-0.017318347151283664,-0.16401974678616713,0.08167821266684051,-0.02343221057415692,-0.016209283073813335,0.012831324313677943,0.07344780983083976,-0.05463208394144643
343,-0.004184111131332927,0.0945612877148849,0.07913398108348749,-0.06696151204771325,-0.017315636800807666,-0.16767594825924917,0.0828499262186887,-0.02835925633853025,-0.01745366769620304,0.014105426671402382,0.0736356446599937,-0.056204148184626906
344,-0.0041840558849947675,0.09617136527089745,0.07704969193842236,-0.06650326581772344,-0.017315511339886194,-0.17224698228924837,0.0789919494312952,-0.03365096906148052,-0.017315108237437843,0.017827053117299967,0.07356850848172876,-0.059272418854499694
345,-0.004184259828675654,0.09946343626350172,0.07161069864851562,-0.07056987162034993,-0.017317811266282308,-0.18174278381895512,0.07811677383292615,-0.0347382102006919,-0.017387357769975225,0.016993834497286597,0.0733106449701367,-0.064645266485127
346,-0.004183648034379656,0.10436848414348258,0.07104486956725346,-0.07105949237127024,-0.01731316231915015,-0.18162456599332644,0.0737918849288066,-0.03466421442092991,-0.01653814395390866,0.019399345581160087,0.06884447164743865,-0.06493575213480911
347,-0.004184713188211206,0.10909870036485272,0.07088350246560006,-0.07560340370263471,-0.01730279069637731,-0.1825849725906131,0.07363348720705108,-0.03482878910781137,-0.012523741614069878,0.02891226497014028,0.06956390190934053,-0.0651251112475857
348,-0.004188186258384529,0.11312618503362676,0.0673279044998305,-0.08042320671713472,-0.017481011559924563,-0.18750727699294734,0.07360994248126188,-0.03919811718652936,-0.013107783384512421,0.030486812801023506,0.06837529364151532,-0.07145322042229361
349,-0.004138787694656516,0.11375697679036618,0.07110189935122209,-0.08376139824657068,-0.016122121036167433,-0.1941033850106251,0.07331539399574966,-0.0397683244537537,-0.012960115543122028,0.030392056020176788,0.07462486676375409,-0.07849126533686748
350,-0.00446854060962076,0.11947433634085794,0.07461991834959493,-0.08532659299460585,-0.012413691426472142,-0.20472767456613777,0.07540095358579668,-0.04559246901025805,-0.012991384888699869,0.03519461152755488,0.07807483283953519,-0.07929938619604798
351,-0.002413518206820138,0.12126906569760461,0.07986933604245663,-0.08840035181648621,-0.013585091595335679,-0.21108684871046018,0.0784123889961421,-0.047997930944134036,-0.012988376429597357,0.041390656844966886,0.0814520095682065,-0.08539459340226438
352,0.00038564839227324285,0.12390620039066365,0.0822925543954445,-0.08731859735423636,-0.009761557231766112,-0.21571174694495804,0.07750808070715698,-0.04721311544355142,-0.01298486792935686,0.048555297879120336,0.08635170456869018,-0.0864506404160575
353,-6.769975391683936e-05,0.12896980080650453,0.08394635092187967,-0.09147726629000134,-0.008852991875609366,-0.22061200077354853,0.08121345623932995,-0.05095160094865701,-0.012962027843189634,0.04697776324650117,0.09590140246062417,-0.08992617166099806
354,-2.041750832169526e-05,0.13355579544959262,0.08354648896769556,-0.09197564061675433,-0.004555061240347824,-0.2255291590969684,0.08642355802932503,-0.056044718006765276,-0.013232481658001179,0.05053956701471828,0.09975254174220435,-0.09515283462463803
355,6.229272586780394e-05,0.1381448746017266,0.08815381744762439,-0.09650199068168426,-0.004371601453189316,-0.22955384947904278,0.08654927834228007,-0.061049185344350186,-0.0113365137088908,0.052258227657762724,0.09959342359459325,-0.09536748066505356
356,0.0001404797901767803,0.1384988342704671,0.09233109764019061,-0.10115524766809561,-0.004258782229216372,-0.23059916135538006,0.08664848965423383,-0.06986866922273485,-0.010078380117685994,0.0516891684208524,0.09914515179088938,-0.10042978261955958
357,0.003969152758719004,0.143567960583414,0.09176264534559461,-0.10580173372000909,-0.004622877732077632,-0.2343624704786177,0.0862458441138337,-0.06919110623720638,-0.013930623914070822,0.05632586741806219,0.10228140397340535,-0.10535470560520094
358,-0.0005398082823632604,0.1485988990277907,0.09343213682712888,-0.1109789422076669,-0.0025303440810804825,-0.23317021337924201,0.08859956545074599,-0.06859149536625812,-0.00966537594349846,0.056101958316336846,0.1038131849936518,-0.10849565674821793
359,0.00015290677034768117,0.15050298515082203,0.09896324853603407,-0.112806933122307,0.00039761575925508375,-0.23699009126435805,0.09034039607214639,-0.07389474320707061,-0.00852975062497002,0.05710804119788661,0.10738163006831523,-0.09341396161994253
360,-3.7189878318973446e-05,0.15350890925296629,0.10064912997148377,-0.11597426862361052,-5.703134463413718e-05,-0.23799733415361884,0.09715117320157722,-0.08066598582819025,-0.008663056170814505,0.062393602526208916,0.11240149744631424,-0.08612488024001452
361,7.847361477013838e-06,0.1549992842293694,0.10033917093820913,-0.11697331778707495,-6.101569440325233e-05,-0.24204110749483532,0.09924619616460424,-0.08955448281288564,-0.008641813126447776,0.06703179887601475,0.11722103917441934,-0.0501484305292534
362,-1.3739292382579826e-06,0.1547921799651996,0.10050231862115018,-0.1178038513038967,0.00013306259127439683,-0.24684999530116586,0.1076268462384965,-0.09104422210165107,-0.00885196316471876,0.07237911947031296,0.12268152045386042,-0.006455762403250475
363,1.6571939852732398e-07,0.15480225568039369,0.10065462396665946,-0.09983680739538196,-0.004590010417083435,-0.24668695020185208,0.11286311981708139,-0.0859959251692055,-0.007307020972689179,0.07377740510721552,0.13333863660324746,0.026982501236447985
364,2.121312286627926e-09,0.1549204980963182,0.1100671102108058,-0.09579332086578793,-0.008949124368940934,-0.24677623428512868,0.12229139566954732,-0.06652045129603311,-0.003877825491543902,0.07355265824192136,0.13951731821122834,0.13494216787661112
365,-9.732758644245118e-09,0.15398352130705859,0.11288328749975696,-0.07289622568467476,-0.00829460739442371,-0.2467468636823621,0.12696795750768236,-0.04355238655725464,-0.004431050194109795,0.07358994878384688,0.13710403899320767,0.25482408279964464
366,9.343019090485788e-09,0.14841012972483328,0.11472012514739593,-0.0391142581077145,-0.010430912683623634,-0.24675488813021967,0.12997425602282192,-0.011777263203021634,-0.004307461729277711,0.07401349631217653,0.14779757188037604,0.47052525405721357
367,-3.2786483106234176e-08,0.14646584683896,0.11709828226695389,-0.030986117565885936,-0.013432617986879395,-0.24675244557238596,0.13178197792596746,0.031503414000431385,-0.004338082922464381,0.07834698132795007,0.15825467055936188,0.5590789782048389
368,1.4809748536489422e-07,0.14406991215265297,0.12008531252674531,0.09723572796169458,-0.012745985199461952,-0.24675484613706292,0.13728035839529593,0.13319270115940587,-0.004322053111730367,0.07777205825235826,0.1770121988453741,0.7103625089742391
369,-5.989272209747739e-07,0.13849774842187731,0.12121929383428762,0.17352378027312612,-0.013493333651976178,-0.24675003321619718,0.14162881783936926,0.3094021316047465,-0.004255635775056712,0.07807018861111022,0.18196046788408818,1.0859034089234056
370,2.073869273972557e-06,0.1382294551668839,0.12515002239156267,0.33995351881486224,-0.008704708718822488,-0.2467488069751796,0.15077000861496798,0.49859299611224084,-0.005098726051916024,0.077445994181098,0.18797960393730753,1.7731163122623474
371,-5.498890985950411e-06,0.1338120151105023,0.12997721037981988,0.4921121877663798,-0.013085269236664115,-0.24685460051938588,0.16058614193210144,0.6312472128188499,-0.009118920435856619,0.08129918733649605,0.19633821019934103,1.9507695218459435
372,4.619336979884593e-06,0.133504247674011,0.13924274392260022,0.5921824351199394,-0.013472846887080175,-0.24594047299758956,0.1691083585408831,0.6935023240073985,-0.008542952220222727,0.08234447159074147,0.2036690354119507,1.554065714137438
373,7.355731570454187e-05,0.12865432954990016,0.1422234878212863,0.8399680694640076,-0.01758891607410981,-0.24052090307681004,0.17058148145868496,0.6375491175132895,-0.008660811015353948,0.08225660785618788,0.22353567372598496,1.2542753348251137
374,-0.0007264200698687852,0.12206833605471445,0.14384027478939934,0.9698809606193814,-0.018596862095082094,-0.23635775997650607,0.18028244583867703,0.9259108952854822,-0.008739895494202982,0.08264104501237154,0.23227761346484566,1.4818852532805191
375,-0.004793516372132433,0.11492677984766787,0.1469528280616842,1.1011265987060632,-0.024116499339286925,-0.22805203811964778,0.1815975726063894,1.8119631524187256,-0.008417822374292637,0.0867732778671974,0.24487861164333974,1.7851019793483855
376,-0.0032733617417688467,0.10743998620864131,0.14599737642229063,1.1993047044786969,-0.02871326951205636,-0.2219281601150194,0.1845633032707682,1.821376618607783,-0.012780486443654525,0.08791242269738361,0.250939692999571,1.8386986930930325
377,-0.009164843956205378,0.1010169950766077,0.1496211331482565,1.2927443539648291,-0.03401896988163303,-0.21327327669910517,0.18906259349679508,1.4028639416178141,-0.017465829066703912,0.09138320831939238,0.2609154956764918,1.7750384148751919
378,-0.01309229084776786,0.0968261551888666,0.15439259765554592,1.3187800324104684,-0.03468256978849558,-0.20344987890470664,0.198740433587614,1.417315378642727,-0.01723978348763605,0.09080693535684102,0.27416461887251353,1.711574235897648
379,-0.012468833429940316,0.0876232556929193,0.15904353174120442,1.3820170805119276,-0.03462216444874917,-0.19366259300145308,0.19930154481759185,1.7360557601233584,-0.017341722339177145,0.09092020079492655,0.2792976259478526,1.628425931016679
380,-0.012559363305131112,0.08351643759666254,0.15934009921115969,1.383192835603201,-0.03492232064714181,-0.1846469685694959,0.2081919624541354,1.8676441294238977,-0.01730267295863666,0.09092821260084136,0.2903700759803975,1.4904653637012815
381,-0.012556239582350753,0.08365921521031905,0.16449342378993884,1.349148658901299,-0.032364213585753455,-0.18096537651085098,0.2097534252833061,1.7597967058888875,-0.017346723367716012,0.09089295818631714,0.2964251983639576,1.35445951785837
382,-0.01252120522455637,0.0728199463283825,0.1689255559396257,1.2882051078556478,-0.025623017243272584,-0.17135999296215226,0.21717277987440486,1.6818406418975589,-0.01721118316621648,0.09059322426075675,0.3075441632722831,1.1385056618320082
383,-0.01274717575212545,0.059271341098385666,0.17424118317983767,1.210630794651134,-0.022314624577890657,-0.15926817342754035,0.2181014038824743,1.661618704049039,-0.017606112084374095,0.08615319487893591,0.3198793698312893,1.0239969694377957
384,-0.011241833528376162,0.056419478687689595,0.17549198659430804,1.0394803247317057,-0.01129464367805694,-0.14622853715501977,0.2240070343072042,1.5630714131361874,-0.013144046966481616,0.08687284321635869,0.3201128511177654,0.8847287856756225
385,-0.005510662631024086,0.04805970284001385,0.17921255701334526,0.9541166631504556,-0.004549312075268158,-0.13545438996906006,0.2275703544367697,1.4054249492141293,-0.007957372202994323,0.0852874525266652,0.33421723705047174,0.7764228552813328
386,-0.004518967608646547,0.03832502768703438,0.17974990472626995,0.8343025613408006,-0.004905725921711881,-0.12566101967089202,0.24157963361132007,1.177365081441776,0.0005933678214507715,0.07696278775741021,0.33791235132910263,0.531078503360498
387,-0.0004338440768388383,0.03341878048051991,0.18413069405371352,0.6606381632323621,0.00892710689292264,-0.11997971391678072,0.24239775633217972,1.040003978040341,0.0005745706930462306,0.07026955057925867,0.3466103486114699,0.1305441081381721
388,-0.0037665342007312357,0.03387801391915884,0.18506046911483542,0.4682948517612831,0.013485120470938125,-0.10116525727466052,0.24840908859094757,0.8964874450184288,0.008341726190300963,0.06558211621271076,0.3684773197204055,-0.3154449058657256
389,-0.004074469173058467,0.030616124847375675,0.19290420488289967,0.19706640522406507,0.018321515643450293,-0.09223729804090655,0.26288331845611884,0.8132096012133524,0.016303462359512872,0.060852813210499776,0.3811193433709194,-0.3326108910535293
390,0.00017407657218390505,0.018260063172900007,0.19511493989127943,-0.1703827800836088,0.024987493214396295,-0.08456375628258238,0.2699136793441681,0.6273697353839077,0.017220474762696107,0.05131204272228808,0.3984427846583658,-0.4523593884749082
391,0.0006873811713726957,0.014796212853027041,0.20362549827271068,-0.2687350998975122,0.0330501701622262,-0.07723148032940311,0.27754222755531166,0.4094647741376647,0.020498460073489832,0.04742884455679122,0.4057272110063777,-0.46234432894597705
392,0.006009217445913069,0.009769711862498146,0.2074345707980308,-0.3741952271179675,0.03712384319978857,-0.07024196559299484,0.2832570714106066,0.28354656686178886,0.029990050030752054,0.047623623985817626,0.42361074291679024,-0.08267836259258857
393,0.010198597726973666,0.005233201235047688,0.21494134843008852,-0.6443871539812654,0.045008207605252475,-0.06573627861938032,0.2990596451630136,0.06902548825792303,0.03459467647121327,0.04789430180213261,0.433369138247916,0.0225477087899522
394,0.017387849085373396,0.0002565409263208374,0.2293455568778754,-0.7965752291607352,0.0595411141898533,-0.06081325631935705,0.3111677896818098,-0.47779469610466063,0.036132268652301215,0.045548328589526406,0.44496928320101614,-0.2026001856236841
395,0.027978688057639298,1.0373937431812808e-05,0.23013008721296718,-0.9471628145214345,0.06497313857461591,-0.055899473159743446,0.3160954740844897,-0.5464153880527972,0.044001044762569594,0.03971304065607568,0.4626650402282153,-0.5203919446804784
396,0.029287854677786992,-1.6385707077385774e-05,0.23513882401962777,-0.947251389547927,0.07063457049492054,-0.05195785129402598,0.3210674216598094,-0.22741663594843295,0.04459235320178604,0.03919249393295807,0.4713580376916318,-0.5605743005594188
397,0.033445408795663864,5.893295139660907e-06,0.23863656038706843,-0.9374892339606906,0.08628193286671192,-0.04989720486640444,0.3336906876219936,-0.041924868947889056,0.05065486899454173,0.034788037580882995,0.4809908470174718,-0.5767566314549422
398,0.04299126215440871,4.7160139326312394e-07,0.23943723686999288,-0.8995947772171393,0.09763967289780198,-0.040397951023388556,0.348974783212816,-0.30007335100441607,0.05213552093855947,0.034668617881306846,0.4936841298372259,-0.5781591442886167
399,0.050920749140056135,-1.0013403148793676e-05,0.2466842046897292,-0.8167805553797973,0.1015413344283729,-0.03926275732765167,0.3545974603169431,-0.5115467122778126,0.051922000083219906,0.034748107637963745,0.5091679842525004,-0.5566819253213071
400,0.04946284945720465,4.10044842544948e-05,0.25680076631604287,-0.7295156724262182,0.1070523175412534,-0.03584472316258947,0.36446065655118187,-0.5911695919726077,0.05194820515000537,0.033596184443091724,0.5189351463946913,-0.533417630551676
401,0.05382683658484593,-0.00013485531422806476,0.2627668709880202,-0.6352721994824158,0.10844347286334907,-0.03471872576896796,0.37819799861051867,-0.580781276356381,0.051935305204297184,0.028400612931356192,0.5377799859809241,-0.517474059714961
402,0.06187539162214668,0.00030818728007665666,0.2672984977645124,-0.593203744846388,0.10808588378328415,-0.030746500816293435,0.3852828846237434,-0.5656310837619172,0.0520846057237691,0.02306064535161665,0.5487828936527648,-0.4969020225735992
403,0.0628486037495227,-0.004182326072792613,0.27201815485915737,-0.5391094277489605,0.10816467454098593,-0.0258945771582125,0.385336457555084,-0.5410538668694415,0.050950604731542753,0.02186431738369056,0.5651990246102074,-0.4538389431845791
404,0.06283123583027936,0.0003335862180455974,0.2766313666907473,-0.4756620199543056,0.09861668137162852,-0.026034796701244388,0.395020216177263,-0.5323960887422844,0.045105621175030634,0.01801455079596951,0.5714126460176984,-0.4255442148763794
405,0.06266727198200299,3.0904601058576304e-05,0.28218133161746506,-0.3953729951773876,0.09432918288338925,-0.025970745644153633,0.40667935429505087,-0.4880567788245045,0.04344546380072045,0.017258194072146987,0.5912451854015971,-0.3554341718607135
406,0.0671007407176311,-0.0011381865148663976,0.2920387140447555,-0.3576069779321169,0.08876983457702466,-0.025878948264610836,0.4246305888027048,-0.4689092854483319,0.04024041348917928,0.017292076716945794,0.6026741833870916,-0.3423958834554837
407,0.06721778251128178,-0.006744723287542535,0.30118999804881247,-0.3191518726916193,0.08695708369335241,-0.026423771539451628,0.430141335388256,-0.44804705504217607,0.03599952299553383,0.017488566183156893,0.6244214748299683,-0.3398113965416852
408,0.06442709467494587,-0.008606085832177836,0.31118114002762176,-0.28566947949748855,0.08165876529442977,-0.023030230913877858,0.4407247774916669,-0.40656388995241133,0.0220377393513441,0.01611455001359515,0.64001419283446,-0.3146819673359454
409,0.057972194351548316,-0.008333558515795364,0.31685042784437006,-0.24962353253290542,0.07144872863082295,-0.021468533300554,0.45336359143546406,-0.3647256985482125,0.01681629889918857,0.012555242961184905,0.6637253482007581,-0.2948520211540303
410,0.05680165590297977,-0.008355096532094914,0.32520869839449473,-0.22575328932092617,0.06121450109114056,-0.02159942516924146,0.45764654407648325,-0.32849297019200036,0.007115313933729785,0.01297037682117816,0.6717468565273236,-0.27402133195842376
411,0.05106769701357093,-0.00836480549647305,0.3347571579233091,-0.1713594420790686,0.060607478319064684,-0.021591525985193632,0.4762567613473456,-0.30292334542058347,0.004397128538655197,0.013433281864867508,0.6878932656278084,-0.24038703950059542
412,0.0500869839286987,-0.00877964185690493,0.33940380306599455,-0.15408576393676449,0.054877341913015854,-0.017175630864025314,0.4863499624583529,-0.28028878488252645,0.0025436873173702475,0.009350422877373954,0.7116878030632815,-0.21894804019400052
413,0.050230908297098774,-0.012960883750263752,0.3441432730246242,-0.1425594333989853,0.0405188953839334,-0.0161874251482906,0.49944649596682694,-0.2644679311060282,-0.0017177064222277378,0.008647008535104847,0.7176593978140864,-0.20810275478816648
414,0.05024960349390336,-0.012431402317815372,0.349257712094278,-0.12473954030814065,0.032328644877000816,-0.01414893766478685,0.505501912357206,-0.22542828831592546,-0.013698692174402342,0.008793988738167922,0.7383553894777225,-0.2030705104142269
415,0.049640038737218374,-0.012582452069207875,0.36477038095696157,-0.109105897768661,0.030790222948157257,-0.0174442802847572,0.5115972378321991,-0.217665593688268,-0.021468696530044837,0.013183144933323803,0.7558991188439332,-0.19359155771016015
416,0.045533103257733354,-0.012545816991916639,0.3736616357490812,-0.09137001391834093,0.025156972562769678,-0.019966594695435137,0.5295428322401216,-0.20121104459370953,-0.021675458921113867,0.01397484997283229,0.7698032029108225,-0.1899659984125271
417,0.046459456428833104,-0.01255345782810453,0.37186822225314387,-0.08485406845113215,0.018026068481186895,-0.02201342522929821,0.537179089381414,-0.1854052230178013,-0.021852890540230492,0.017913572147930143,0.7937844477806012,-0.18043952522141324
418,0.04396685780233168,-0.01255216230974504,0.3759436353394884,-0.07626746023098198,0.013771565432808334,-0.021331664888899343,0.5442558682059448,-0.16616108425526568,-0.02696410165382583,0.01675592545414028,0.8065260357206329,-0.1726843021662083
419,0.03945380662814851,-0.012552301260940256,0.3807468481238409,-0.07113921656156202,0.00435254973028688,-0.02594954699794366,0.5497763911845641,-0.16017886571762235,-0.031659840028642465,0.02028196798928477,0.8206877289291709,-0.16840155399776277
420,0.03112278725668595,-0.012552168363292022,0.38624500333711853,-0.06671974804122603,-0.005025690076563718,-0.02588210263208544,0.554773917524623,-0.1552717957421608,-0.036913880506646936,0.021962652531332776,0.8407769778896789,-0.15738596709443428
421,0.025226311382931948,-0.01255343316064957,0.3991185521819712,-0.06705481369924936,-0.009862719435287411,-0.02621908482840458,0.5585795876261683,-0.1504278488009993,-0.03939387436984946,0.021370640348402314,0.8499737031129418,-0.15198187692885456
422,0.025074268101542264,-0.012545897517119053,0.4043478737247282,-0.0668299838924985,-0.013134090582728498,-0.024529070528693072,0.5595732580867703,-0.14583016236650773,-0.03842697192767531,0.025987194738141314,0.873619475184482,-0.1471716118723384
423,0.020173698721700942,-0.012582258324130416,0.4129995755442745,-0.06736220558559741,-0.014558595523907696,-0.021193963502489657,0.5650576553877031,-0.13902110577716428,-0.04280610813242249,0.020722757055563788,0.8827306870126699,-0.14154825403241644
424,0.016439049457474632,-0.012431485820097296,0.41407831074412,-0.06430441574311958,-0.020583256964995668,-0.021776955050089013,0.5696202386234394,-0.12839334372661654,-0.04322055183002217,0.016955820216400942,0.8912470966490015,-0.1277495904170349
425,0.016817480941864044,-0.01296387504090045,0.4169728227140726,-0.06242133599496701,-0.02138399307326709,-0.02150893094064139,0.5750882886881173,-0.1221898765950182,-0.04787823990314547,0.017769060588694482,0.9056899317954884,-0.1258036630662493
426,0.01674316704435564,-0.008798175280002374,0.42242854843095573,-0.06306455946974777,-0.02552412728398822,-0.021968619023986086,0.5755819454956042,-0.11739127012361487,-0.04694965128073296,0.015004094090907711,0.9146801601038427,-0.12331066611058479
427,0.016627206926702363,-0.008361096294591645,0.4225493488410474,-0.05860423417829573,-0.025975916513323524,-0.017418791387998157,0.5800515115587563,-0.1126268688776633,-0.04156700103592037,0.012656017890695512,0.9280328246375714,-0.12167317624162602
428,0.01712257042768892,-0.008341898882257396,0.4314845334607743,-0.058716765982906184,-0.025689236301916857,-0.017375537356557384,0.5796527211663204,-0.10344605055708937,-0.03850788693852835,0.013063941920670143,0.9418280925905913,-0.11513455788312639
429,0.01304798110429125,-0.008448316372780741,0.43060379881475597,-0.05786478361034433,-0.020596397464643857,-0.01723731117890838,0.5752925919835807,-0.10403581610986909,-0.0395106007402823,0.012933728030885267,0.9510403020929671,-0.10881870042711904
430,0.012511892544120228,-0.007951150876240641,0.4320288519423435,-0.05278910261665302,-0.015319734713061991,-0.017635508466922977,0.5763576851467358,-0.10416764365084427,-0.0357178097244244,0.012948325460037996,0.9606753955488365,-0.10402554473669426
431,0.017197739186260417,-0.010809188125353414,0.4380221508333651,-0.048194417858777365,-0.013520073090761009,-0.01538905460732294,0.5724413852568406,-0.10184708068879296,-0.03457432598734011,0.007892770592575128,0.9612108066838386,-0.10397840293944022
432,0.02200165536884642,-0.010263931250738916,0.43684842503114896,-0.04346429805694055,-0.007477094723743491,-0.01263105690379696,0.560722324255136,-0.09907047391380079,-0.03453105386717052,0.003947240072542992,0.9570727379426278,-0.10338441653645851
433,0.02555210380741268,-0.00806574448063512,0.43521945272250673,-0.03876652273632533,-0.0042743799486410425,-0.012942409413184792,0.5570708789779655,-0.10009111885338831,-0.039157979178537604,0.004780679101875897,0.9423936338523986,-0.0978546818897903
434,0.02458459048182623,-0.0084082865422219,0.43160485092726286,-0.034062540339402564,-0.0004816964551346689,-0.013330941576428518,0.5315846091050667,-0.09563334204875491,-0.03885939771546204,0.0020819012300099895,0.9227861312279071,-0.09521075519104616
435,0.02775772383591839,-0.008367305439560806,0.42688947454792264,-0.02935890820128899,-1.826271318599703e-05,-0.008845482921245667,0.5153356473077425,-0.095263833371182,-0.038978761163533875,-0.0003333335530279818,0.9131938243988528,-0.09325742427971886
436,0.029201196123057202,-0.008372991099548567,0.41775163172865026,-0.024651546332669527,0.004934919775002181,-0.00869789493991535,0.5009914922109764,-0.09045753546353105,-0.03903084771394089,5.132932574687595e-05,0.8954105507017434,-0.08804188504531671
437,0.03263340408729483,-0.008313603443014017,0.4054041681966158,-0.019988801583064507,0.008958952639168597,-0.008632473288570527,0.4835835377053146,-0.08484581008144809,-0.038631156912244,1.1237487342114242e-05,0.8577060678195586,-0.08292435866000018
438,0.03744724851677335,-0.00868900309676608,0.38649019686815633,-0.015037424951259188,0.008493398730250826,-0.008666734042927537,0.4575615564096525,-0.07540307408175564,-0.041680268045527165,3.426830835695848e-06,0.8365518119434122,-0.08212667303260303
439,0.04199475048835558,-0.0063771955978088836,0.37974342608560335,-0.012015388090205427,0.009043347938483293,-0.008655614951741308,0.442066106012811,-0.0745246965540576,-0.04725918822263462,-0.0004145777046979218,0.8363432611811066,-0.08219730551912567
440,0.04159732247995311,-0.003830080993500002,0.36574916400334323,-0.013439805119320178,0.006212688469474243,-0.008658574866407873,0.4255230713721335,-0.06602476157184975,-0.04755396130211858,-0.004813185196294444,0.768385520254356,-0.07752138508816903
441,0.04303836572135624,-0.004249313214249243,0.3433750223375866,-0.006479769278511629,0.0015299392866630753,-0.008657893203755785,0.40237127627975394,-0.05657285127670853,-0.052329709440563324,-0.0038551091927932386,0.752472722797351,-0.07893705528509412
442,0.04659254474806773,-0.004176593688821306,0.3357844077355612,-0.0005321180607001834,-0.007426719127887081,-0.008658027576466071,0.36724951696406666,-0.05616836137381209,-0.05734085410212464,-0.006515168409247186,0.7188252940884493,-0.08300697597133133
443,0.04536139746120956,-0.004183266761145629,0.3144198283414891,0.004126090995116585,-0.012964580623216608,-0.008658007092394211,0.34680978825459996,-0.05634247134068737,-0.06065819166154718,-0.00900087266208777,0.6807171623540682,-0.0801344563345667
444,0.04944715159474516,-0.004162563632887011,0.29155047043964677,0.004132217833242175,-0.013202253244349944,-0.008658009180963714,0.3179470324387076,-0.051743828973623014,-0.062493896704495566,-0.008603773386221867,0.6621409041625326,-0.07709308825007076
445,0.04688504903942714,-0.004383289161221292,0.2831821212934559,0.004208315186710839,-0.018436977920318523,-0.008657995264065865,0.30097111682121264,-0.051835322726366845,-0.06513569059657205,-0.008645688759482377,0.601743716531938,-0.08138151215432335
446,0.045958252640445445,-0.002832391427175091,0.2610718869677791,0.004176550347890402,-0.02281903213234292,-0.008658103869353088,0.27912123295394853,-0.053390173336452657,-0.06711882345315712,-0.008664260404228932,0.5552099782765202,-0.0821281307863402
447,0.0460481193943337,0.00043250549857693106,0.24053316091440308,0.004186063834219498,-0.02993967095406575,-0.008657502512265542,0.2433870908934229,-0.05636390929789682,-0.07700147458324001,-0.009029305280938678,0.5257232461749864,-0.08641187090516123
448,0.04547630506843701,-9.632058806054996e-05,0.222086203723057,0.004183609625248493,-0.03804121120246068,-0.00866028817003085,0.22319806496029562,-0.0586217624104742,-0.07786890255363979,-0.013399115006857884,0.4821698765894742,-0.09126858503415518
449,0.04155079748070264,1.79175059592027e-05,0.19805842768138038,0.0041843806014306775,-0.038781584845105584,-0.008649100207677684,0.20498142206724712,-0.06324401174608049,-0.08246468856022682,-0.012855773394375724,0.44289707953719637,-0.09609372581769912
450,0.04095620253403172,-2.0090754393281485e-06,0.1936661329891771,0.004183551044502523,-0.04240626728942752,-0.008687259163552752,0.17914188577503795,-0.07269583210423733,-0.08213748688652622,-0.013048958632746688,0.4145233400153766,-0.10117832581467726
451,0.033278378623526464,-3.9791015518129017e-07,0.18025276053158107,0.004184611216031905,-0.04756935566646291,-0.008590052517738873,0.17792057497781422,-0.07357694941233345,-0.08228340256531928,-0.01285695466910583,0.3893525701347705,-0.10436463356056311
452,0.025731845232638113,-6.83375766424523e-06,0.17040267120415412,0.00419090567036116,-0.047787467751370806,-0.008638089661181935,0.14512158265810604,-0.0784533840348501,-0.08226487418937606,-0.013415127453376953,0.333435962503195,-0.10335561421025442
453,0.0256663015904519,6.603920301464818e-05,0.1508752779623067,0.004119036385913554,-0.05320074585040378,-0.004041936691645349,0.12981142481256475,-0.0825775066143942,-0.0821535981065425,-0.009166188624689514,0.31987885892693635,-0.10696330965402195
454,0.01771826716542229,-0.0003956368577482083,0.13326086706649817,0.004573684060922813,-0.056290560599869956,-0.004503815699745727,0.10044021722627007,-0.0818475489438129,-0.08261055321374114,-0.008628388189216473,0.27851049487811874,-0.1084347868031705
455,0.012548557597508931,0.002342584907746296,0.12135487003817612,0.0018709672657419001,-0.058174652568161865,-0.003950513263856611,0.08739378722377598,-0.08424918927065504,-0.0787614192767494,-0.008386142369529646,0.2540092600567254,-0.10815298296888896
456,0.012174077042644976,0.0019287684093046071,0.11231816516245548,0.0021324243860779395,-0.06101171029036138,-0.00646347372348722,0.07165839403626036,-0.08699740621933104,-0.07380743439815926,-0.0032858336824605466,0.2262312704262322,-0.10812592686319697
457,0.00794338771107025,-1.2774612552802003e-05,0.1026829001382081,0.004634736541337055,-0.060500349319408474,-0.009043942011884187,0.06099520307569804,-0.08635003936904359,-0.06911240595637844,0.0015035666744256469,0.20669222335283183,-0.10358294961631202
458,0.00852287803972092,-0.003284896424324343,0.09375170175120992,0.0037985324103009957,-0.06070053274164565,-0.008486129908893832,0.0573317347326065,-0.08703122363276766,-0.06934574430270549,0.006261524670906485,0.19255213301694737,-0.1040132177046978
459,0.00819743274896586,-0.008284935948232841,0.07990375746114411,0.008284648891904516,-0.060512058833570324,-0.008943165742603572,0.04799050541173767,-0.08223788556734492,-0.06923763724798652,0.011691134037124578,0.16494373006318305,-0.10385580380590918
460,0.008938421062832208,-0.008267222755720578,0.07021915422253242,0.008544519302791152,-0.06518820975001313,-0.004396999396121057,0.03844335091452196,-0.08656764932009414,-0.06927052747887821,0.012856138876324622,0.12991642381440482,-0.10393601505781745
461,0.004770536418633401,-0.009070587854600878,0.05628984537327114,0.013309450031755625,-0.06426909095358642,-0.004722362043785787,0.033764389561000814,-0.08173163017343092,-0.06926486594379766,0.016461448159744627,0.11909702187995581,-0.10376863982980426
462,0.007692555284561578,-0.013432852885666688,0.048510320170788046,0.019626462967449416,-0.05884412537907183,-0.008998812511312279,0.029055814576611487,-0.0824390276621605,-0.0692557256655681,0.02152156017746822,0.10005037148804942,-0.10432297058470608
463,0.008453303375250465,-0.02239778666654885,0.044552248930556614,0.025873877248179106,-0.05596422080913311,-0.008716492572927611,0.022489430292967877,-0.08209753244127922,-0.06928858000376677,0.026630686739789234,0.08453469993946237,-0.10001812785113753
464,0.003968430218365073,-0.03247020684146328,0.036949067711625365,0.025019764776651233,-0.05623892680494655,-0.007851957701344026,0.011702498400177288,-0.08272385639014929,-0.06923250174608135,0.035914366818893324,0.06962539012831842,-0.09955667151780088
465,0.004469812755547119,-0.03628337841357193,0.030062631958876974,0.024798371493650176,-0.05667714634903937,-0.01389902130782459,0.005853858766466531,-0.07905832444520511,-0.06902012192234924,0.04036292539409,0.06417296872273662,-0.09963542970510372
466,0.0028461806099193375,-0.04115370272525295,0.026397248502436747,0.02845789889011745,-0.052628166755056764,-0.017826406566354917,-0.0029968894832902273,-0.07776586067002882,-0.0645660044002628,0.04491202257450706,0.05046482779264815,-0.09877693448241405
467,-0.0003997838472932789,-0.045830659044893834,0.013142999420823786,0.03328938428502706,-0.05179651080957024,-0.017325349737486298,-0.008473312143334145,-0.07793783057745848,-0.06500021017775158,0.05261113945533754,0.04507571716439104,-0.09479641645578327
468,-2.806611282969601e-05,-0.05052027243114999,0.004005639735787736,0.03798686895042647,-0.05645186181343742,-0.01720614512270441,-0.013143743703662005,-0.07797329566035978,-0.0651896718371826,0.05992139109490611,0.0368821531682781,-0.09525068741396457
469,0.00043754551742977493,-0.055419498477463726,0.003750334351877804,0.04269973857174236,-0.05616993200425286,-0.021832661873314167,-0.012952059038240085,-0.07737622073039024,-0.06289030424941695,0.06078493156046029,0.02969194540126527,-0.09567142093636744
470,-0.0036430044526073162,-0.058693891021097705,-0.0015189591176857993,0.047313497580555045,-0.05638965031379052,-0.02150523929012471,-0.01269058754657931,-0.07186466536601877,-0.056975560053850266,0.06046688922764689,0.02260829401175702,-0.09211720009680974
471,-0.004130831668516367,-0.060024463269094844,-0.005944068336170477,0.05248589350834038,-0.05586278644155312,-0.02192051933589147,-0.01498538200934034,-0.06881395093546767,-0.05665794300571458,0.06505043297791227,0.018166874798946454,-0.09073275789556867
472,-0.008728490081878681,-0.06526303671969387,-0.01116565766962862,0.05434526809026268,-0.05882491629385297,-0.02005674966974727,-0.01731058417945282,-0.06983548208364686,-0.04815379435253095,0.0655345256331512,0.013109217687449704,-0.09093259116280501
473,-0.012625846532798517,-0.06986634899777551,-0.012649695935243217,0.05701626699487148,-0.060889692248700285,-0.014930091776265511,-0.020157270812720857,-0.06597008186996317,-0.038760071272827476,0.06977103986650907,0.013134529358954176,-0.09093639684223263
474,-0.013693736764704699,-0.07453086740459572,-0.012854594406558617,0.06214591267621891,-0.06055779523040302,-0.009549112914250835,-0.022511306426786944,-0.06512651494937095,-0.03833957885854901,0.06904754768245804,0.011714684893119073,-0.09052366045583679
