,I,aVR,V1,V4,II,aVL,V2,V5,III,aVF,V3,V6
0,0.0670995670995671,-0.004329004329004329,-0.08658008658008658,-0.03896103896103896,0.0367965367965368,0.004329004329004329,-0.05627705627705628,0.047619047619047616,0.004329004329004329,0.025974025974025976,-0.030303030303030304,0.05194805194805195
1,0.06520871277490245,-0.003716182213237249,-0.08658008638158358,-0.03893757651917049,0.04381337971645417,0.004939567991419911,-0.05646935778656845,0.04743333059883877,-0.000391143265716178,0.025678674711265247,-0.030289527735112568,0.05196190957091186
2,0.06314363328383125,0.0002886471815953711,-0.08658008756606769,-0.03907763400028491,0.041411895784224016,0.008957894383454642,-0.05524445108270473,0.04861893163318107,0.0014320251304848605,0.019637169806882144,-0.03037022195059688,0.05187909347163576
3,0.05420211887758879,0.0003224655372146573,-0.08658008125442537,-0.03833191590714702,0.03241131524283484,0.008920026728740794,-0.05158792117457005,0.05248473953697725,0.002728734491609082,0.009387079178491856,-0.02994163429673504,0.05231895099398361
4,0.04919616924647633,-0.0019234496360367502,-0.08658011099836543,-0.043070590194894294,0.02829341544433706,0.006358692631753189,-0.05161402231914761,0.05147441764656817,0.0018101266596684527,0.00019311276648465174,-0.03259503379435746,0.04961288285622211
5,0.04859789133272516,0.01382267291729525,-0.08657999118420626,-0.051203396061467434,0.022790096015679506,0.004003522253609546,-0.05485953751085869,0.054583375885914956,0.004857235407933231,-0.012920980534217245,-0.03507858005231631,0.04733807165864319
6,0.03763777985041899,0.032625872368773824,-0.0865803906131142,-0.05204046120943888,0.021485179924442106,0.004398064315817718,-0.056479809472647906,0.059566268849932866,0.0039134323390334945,-0.024688907688807684,-0.034178431707666344,0.04756718191508742
7,0.030367338168114526,0.042958712914675325,-0.08657947470060884,-0.05193903562870924,0.021661513290002914,0.004293485806943154,-0.056257450632626424,0.06482525504568248,0.00846588354362657,-0.029974655173726883,-0.03879630047654826,0.04778397875293541
8,0.03030739591437039,0.043229128816029756,-0.08657891678360055,-0.05194685101066357,0.021645645185014346,0.004195869045755874,-0.05627486316971123,0.06516881238687894,0.008486498451437322,-0.034760431155211796,-0.03910840189183211,0.043135089323382725
9,0.030266301498041177,0.043283039931417834,-0.08660228101669187,-0.05195228824636546,0.02165633510844502,0.006148660141386015,-0.05627889451968908,0.07433324340359135,0.01019309794699777,-0.034385249683925784,-0.043734715165378385,0.04337781003137956
10,0.03054162906560455,0.043588933559267136,-0.08642576898704626,-0.051924508446153414,0.02155602699417019,0.020767249057400662,-0.05627623709419078,0.0731358821927492,0.018297467022713013,-0.03589709432393304,-0.04284819301475256,0.04333469588955907
11,0.02873795298967559,0.04172886470154112,-0.08738681142124005,-0.052068346522629524,0.022117936482021656,0.03006195307713413,-0.05627817697023965,0.07473652991975206,0.01677123682071089,-0.0395516003531252,-0.045302679343569255,0.042909158535923086
12,0.024948104669391638,0.052594476897784806,-0.08155382210818243,-0.05142678146809531,0.018843077897026512,0.03781642705054419,-0.056272908513607466,0.06655835250566591,0.01963782455579947,-0.038252314573376606,-0.04795102824901862,0.04583558954319168
13,0.02839392449375148,0.04560710302086886,-0.07778042582353804,-0.05531939867855722,0.018510712535044656,0.041085117801187794,-0.056292102830697466,0.05651209941815426,0.025280614902371663,-0.04273757839540409,-0.04767011585870788,0.04822337081051966
14,0.007934958631702956,0.022922737799769784,-0.07435394374943857,-0.05579594158513684,0.0060890193540948856,0.054990652975614306,-0.05623441022400238,0.05652141312913339,0.025997710434625607,-0.042066410219971345,-0.047329360149304806,0.04393984561979768
15,0.004171175853142981,0.01313974305388715,-0.07350774585477049,-0.06461811411965575,0.008289327142309948,0.06053487739105741,-0.056327215443288364,0.05215420225055794,0.03050191697818994,-0.06454939917623598,-0.05193078959840758,0.03899175228230106
16,-0.00023815179985942823,-0.02455605319571017,-0.07335090156782377,-0.06983009066507449,0.008580243411795975,0.07927791188457813,-0.05675671911634354,0.047197148585958575,0.04414068301354395,-0.07309448412305997,-0.051926533949262464,0.03441012882438556
17,-0.005791377127860502,-0.030605024312834087,-0.06883837319864641,-0.07951035658543591,0.008742478305751967,0.09204843477561044,-0.06651534401222813,0.042925298072094276,0.04299899232633469,-0.06329546003519086,-0.05154557298060504,0.03474095607691641
18,-0.013814336236377723,-0.03981294419887584,-0.06972252654847934,-0.08215446358786108,0.00840490646969028,0.12074390926987956,-0.06948625868722685,0.04368061873180328,0.043209367227180766,-0.059134171413219874,-0.054894973592573615,0.03450695117557385
19,-0.012761528195603198,-0.0653557378470895,-0.06713122823843652,-0.08425415983437301,0.010248950721984028,0.13718361495365966,-0.06917616782213733,0.041378900436084505,0.044768374450146496,-0.05406823277613046,-0.06335333817598346,0.03508966659967055
20,-0.013039193408709128,-0.09313923287809651,-0.06506601412426104,-0.08694526142573343,0.015562870046727902,0.1484102649865023,-0.06941007086491006,0.036905760659731536,0.05427687292475933,-0.049012601912491675,-0.06783009883527108,0.031650948896154614
21,-0.012976960831990767,-0.11252961168118529,-0.06161283076884015,-0.0865437619747737,0.02038707922633605,0.1638160867857134,-0.06880415831569582,0.027436797880081982,0.05617812919372104,-0.04479456992765727,-0.0722395250263767,0.0301680043636568
22,-0.012988067730496872,-0.14458776088321448,-0.06076871134877918,-0.08651361551175686,0.025193844508024806,0.19355732147313814,-0.07324205150177979,0.029396253817230062,0.06049940106202314,-0.03507469869889865,-0.08182938901547596,0.0302211730074085
23,-0.01298759480857938,-0.17870472359932188,-0.0563313933054987,-0.08657570364138814,0.030223968102196595,0.21481615421363476,-0.07359630094598454,0.034634649989020244,0.06083688868050802,-0.03450913748622072,-0.082184117973276,0.029960815850651655
24,-0.01299135932150752,-0.19180904386591566,-0.05644616728316134,-0.08196625166567659,0.030279731610273156,0.2786030435786663,-0.0782288710770374,0.034595432741539534,0.0653701652150337,-0.02417552617505233,-0.08228581447986372,0.020963516837481024
25,-0.01293758822941652,-0.20423733531701427,-0.055344685953072556,-0.08236778394732404,0.030105196764346618,0.283034200968169,-0.07778157597335518,0.03457667853404883,0.06480013061556679,-0.015817406990593794,-0.08231475168622286,0.021581893512363566
26,-0.013296800338530456,-0.22332986676058889,-0.05149115174978191,-0.08220916971869978,0.03180461696144922,0.3053360774759879,-0.078053582754904,0.03503712242561962,0.06496896687854573,-0.01066066370486364,-0.08185364061666656,0.023551677283425707
27,-0.011033455380297316,-0.25075959777944135,-0.05206192639517077,-0.08229755039912648,0.03462304139721748,0.31960073450686427,-0.07747611369680614,0.032134731868247175,0.0649277562303538,-0.010036146810545222,-0.08483266185462501,0.026219798305507316
28,-0.008278471174423188,-0.2605595558845079,-0.05192391327945658,-0.0821006132813174,0.03737970677520085,0.32560820775256466,-0.08083273447231658,0.030806694106532348,0.06493683030856187,-0.01920488929344318,-0.08695657521697268,0.026420798544115567
29,-0.008729433151197737,-0.2690352309644376,-0.051952228257312896,-0.08271919775810765,0.03879363973759116,0.34058011663569465,-0.08255300013713027,0.023571864906298395,0.0649337670121883,-0.02562527283486793,-0.08624487802426659,0.019238871277990368
30,-0.008648028741034049,-0.30277118173881923,-0.051947542502162485,-0.07803987063441256,0.04281557163688698,0.35042746284666726,-0.08203207917116291,0.01758174523800137,0.06493308803691317,-0.026007721544677984,-0.09087204115915348,0.004410784518418446
31,-0.008658435854561237,-0.3190611681844526,-0.05194799408106179,-0.08252977136314082,0.04329323570938961,0.37345536566827686,-0.08669272664874136,0.012750232160370766,0.06497572033494345,-0.02619613937918295,-0.0907638847319776,0.0042210992235207434
32,-0.008658323000169315,-0.3412479353678528,-0.05194926707934558,-0.08685258716015602,0.0433111308079663,0.38077393832655004,-0.08650004787302058,0.008395691676502552,0.06465000664810372,-0.03161748283403689,-0.09165230555849026,-0.001506498291708516
33,-0.008657859919039952,-0.3064025262007324,-0.051939313974155354,-0.0862052675941901,0.04328116452751127,0.40362729744746184,-0.08653644185364522,0.008732192910423162,0.06678662295985807,-0.03447027458141607,-0.09727410925499996,-0.00429634190048454
34,-0.008658054787275287,-0.286334012487878,-0.051994950983183574,-0.0884835332718728,0.043293256660518545,0.39289849506559366,-0.08696082136167417,0.008727980323724568,0.06965371087541142,-0.03798733311444099,-0.09991156205531922,-0.006485006894007278
35,-0.008657996893424813,-0.27918897297919915,-0.051738253856834886,-0.09113216840004855,0.043286525655703435,0.3665055566037755,-0.08410514873037822,0.0074601617677550565,0.0691907630576052,-0.04934936098309202,-0.09938082060042985,-0.009104635597616052
36,-0.008658011220920725,-0.2528662326711323,-0.05274550312808327,-0.09143906716639473,0.043301535065105944,0.34455175866157534,-0.08184715762129566,-0.005145780643339728,0.06927413788235132,-0.05495423378593911,-0.09996061122434183,-0.00827308011796542
37,-0.008658008196256518,-0.22252134087214298,-0.04510137489439314,-0.08921277630731526,0.04325317686520764,0.3314405157105431,-0.0826331428101363,-0.012310838499037764,0.06926370541640679,-0.06406853643323078,-0.09550816167786032,-0.012621149208525697
38,-0.008658008715915426,-0.2074756403849919,-0.03906349186261141,-0.11195832998496517,0.04336887589821216,0.28429184262125645,-0.07803938615653634,-0.021207799178232446,0.06926323598207106,-0.06933459422351636,-0.09531238579313954,-0.017642205290910557
39,-0.00865800865770995,-0.1952464810961953,-0.03897971015593687,-0.1123102876712122,0.04338913332053016,0.276067603997961,-0.07797232369593406,-0.030636396417655833,0.06926860745086985,-0.07431598416045726,-0.09456269178732765,-0.027706119303463523
40,-0.008658008670002377,-0.16674256998123865,-0.038910784187467816,-0.1123234807639889,0.047407016467765524,0.24725269666337835,-0.0701390126222458,-0.02991510067555204,0.06923865146199724,-0.07874338778038643,-0.09036835798523922,-0.03691018492171111
41,-0.008658008539375381,-0.1598027111694028,-0.02953536964947004,-0.11513790094287067,0.04272886024061843,0.21339439740300037,-0.04293462617836488,-0.032122648843223,0.06938252323480625,-0.07461938876478,-0.07880908844166877,-0.049784955203436954
42,-0.0086580093318438,-0.1401708136049391,-0.01340546591094854,-0.12352302029852905,0.04344770275123944,0.21037000606961417,-0.02706142309215806,-0.0468464280831886,0.0687995678885803,-0.06656491424050487,-0.06617167746381095,-0.05702815823931434
43,-0.008658005531892119,-0.104825423750859,-0.014312581771963772,-0.1303767861497086,0.043252666724288874,0.178247818639512,-0.02200508020113992,-0.06666232096802202,0.07280966748360464,-0.06153672091516735,-0.058397948652464685,-0.05851231441120145
44,-0.00865802104077222,-0.08973546437123116,-0.003621794772566542,-0.14089167292084187,0.043297594911708134,0.1540989744952037,-0.0046632737164695555,-0.08751803397526785,0.07366052877557737,-0.061001567041917455,-0.05356609343576316,-0.06820407482675316
45,-0.008657968114878628,-0.05256846573931186,0.003589047128888268,-0.14993268952575806,0.04328870985016486,0.12606127585796412,0.014957440793950904,-0.09474294882382447,0.07360255305331921,-0.05254283333522986,-0.034774999034754145,-0.0734855970859793
46,-0.008658098298963295,-0.03433702346738885,0.012752107925292744,-0.16451532702784008,0.04329039623413047,0.09615954395723599,0.034665223880655356,-0.10392848628732676,0.07358615437197881,-0.04288383233299333,-0.03305553719808578,-0.0833818458159722
47,-0.008658090319913513,-0.024568153191610813,0.017972535198234052,-0.16605312587460408,0.043291029127814296,0.06380395277670219,0.039650660616382206,-0.11343219103832029,0.07359532224572053,-0.03754780118371312,-0.010679405853207504,-0.09227545164451725
48,-0.008655486105412153,0.009268470451402028,0.027340458513386054,-0.1839270457051087,0.04327700569845208,0.05725874918965102,0.0505320705510848,-0.11705819597034497,0.07359301351098084,-0.027073551991359586,-0.003206415373019901,-0.0967907437643432
49,-0.008676586176060517,0.019532720126853673,0.03197372744352207,-0.19071195029881718,0.04337517199742294,0.045211221824971136,0.056563411416408624,-0.11754551218097402,0.07359081724559048,-0.01880810623242436,0.014229057266106336,-0.10181116578195214
50,-0.008557961081417625,0.03012225095402828,0.034991616600509236,-0.20287869554067844,0.042858610468919846,0.01289232035320937,0.05856884468163404,-0.12759961513996426,0.07360145131645349,-0.01765881241915704,0.022485451915040564,-0.10666996964984417
51,-0.009107685369572658,0.06441070067802201,0.034644542356045374,-0.22248951711018164,0.04595626888982831,-0.013149934035646627,0.06032462857543254,-0.14112997488712578,0.07357177176699758,-0.013693636756663248,0.033362594213532194,-0.11164303693051619
52,-0.00568060393101519,0.0696861042326142,0.03074861322073942,-0.23382224722314723,0.04744879844808654,-0.02940845117106718,0.06465020094129112,-0.14472629974518722,0.07359715508029077,-0.013661356408954162,0.038043401656674206,-0.11640402824256924
53,-0.004136438446725905,0.06926792350201044,-0.004238500555313722,-0.23724924617623835,0.05132695813154352,-0.03930063638611106,0.05730862736743137,-0.16756004502448452,0.07401904316370882,1.654873704731367e-05,0.05689227871908352,-0.12610811833854607
54,-0.0043472732738387915,0.06999999634551753,-0.03034199252170103,-0.25146286068263285,0.05198107321694316,-0.042726229321740625,0.03265917409994973,-0.16862909273558663,0.07835189526696135,0.004880075734805175,0.06658446942752747,-0.13983587242359
55,-0.004331228015369828,0.07284791183798266,-0.047993024487955,-0.25687731312254064,0.05196549454461916,-0.04914397847222836,-0.031973267482311406,-0.17674738346560986,0.07779721616283723,0.008622156616335318,0.07372206567220514,-0.15390890394059384
56,-0.004327216310272173,0.06868204365101782,-0.11100665585290241,-0.263934702193046,0.05192656420906129,-0.06831337101006803,-0.09683765805263458,-0.19679600595274327,0.07795201655450239,0.011560024415434115,0.06424617057896434,-0.1706511740365591
57,-0.004329731297808804,0.06938799063005724,-0.15914327697146186,-0.2576651769802108,0.05203145349657947,-0.07422898020553871,-0.17149829105268444,-0.194808423534055,0.07791606024906748,0.020051152546502256,0.029603905407214602,-0.17049003758738723
58,-0.004328292373248674,0.0692704637259612,-0.20312513997671056,-0.2523407539275587,0.05155552679220782,-0.07849328840199793,-0.1957758955748548,-0.19086193595761525,0.07792305532099132,0.024767358676041976,-0.005682586024869473,-0.1765362474499919
59,-0.004331404311809447,0.06918249311965147,-0.25928964616118616,-0.252009382555787,0.05452326583229364,-0.07784320148308396,-0.2375904808587438,-0.1790866429240883,0.07792193278873105,0.026139341846974192,-0.03901934579536279,-0.18067774636698974
60,-0.004320238851072508,0.06932986190779829,-0.3001778427782094,-0.2404138975026378,0.05695613497984011,-0.07792502467086392,-0.311896243854243,-0.16777730214926956,0.07792168563883348,0.025959804372362866,-0.06822505351141134,-0.19037797381458843
61,-0.004354755327415686,0.06466808786062067,-0.34181777680138103,-0.2220658211523553,0.05237280597461661,-0.07792456675731368,-0.3578742505624474,-0.0925750051204986,0.07792664789522166,0.02597157688774123,-0.11973266715220657,-0.19096999888852628
62,-0.004290741921156041,0.06527027143547254,-0.40914570012848234,-0.17465499691324468,0.05194250402918153,-0.0779220297207578,-0.39066285029488845,-0.08550291449202445,0.07789314132804614,0.025975680600451915,-0.1517801069394873,-0.18456008392649947
63,-0.004113149463396406,0.06336723193254107,-0.457670648429509,-0.16446827045784823,0.051929798467227145,-0.07791575749790156,-0.41326826498758557,-0.0421783573253775,0.07806503376044971,0.025973460897447335,-0.20664032297495233,-0.15493724142337595
64,0.00037325566863233663,0.06024474893618332,-0.5129158437187269,-0.14205009273755154,0.05196001089290129,-0.07795343140638093,-0.4784641852586581,0.007859564653282075,0.07733066884543847,0.02597421368232574,-0.20521290358099759,-0.1446613327523987
65,-0.00012307007924804912,0.06044741077724748,-0.5744386076854273,-0.08631353433932354,0.05192057805416595,-0.07779728411803065,-0.5031207535446205,0.059531929708786166,0.0817110198608057,0.025973824350134986,-0.24262696559861915,-0.1372649957703122
66,3.2592590188687976e-05,0.06138871998176985,-0.6164814306042243,-0.056205107691455966,0.052065992105944085,-0.07832469163536301,-0.5681887384517755,0.07862703919692374,0.07842927903024387,0.025974628764196032,-0.2638958792500951,-0.11182071906736861
67,-7.359335753575577e-06,0.05256915267866602,-0.6557607207236192,-0.02641525800282716,0.051482564645599284,-0.07389494568922354,-0.6145717568568023,0.125968455522865,0.07793304400113328,0.025972458312778068,-0.2740533090241022,-0.08299785736237258
68,1.3932187751690323e-06,0.05202935787684443,-0.6875713682097018,-0.01869023379238266,0.055410469846370325,-0.0736189305849823,-0.6803309922944748,0.15755867232455753,0.07789419868152327,0.025974871459350228,-0.3262844266564662,-0.07710925039214432
69,-1.9511546094679735e-07,0.051308367900224715,-0.7760380210209646,0.008761034758820303,0.056371225105013974,-0.07356946656036635,-0.7186206420476815,0.1993648056956449,0.07793272615752576,0.02599994683482572,-0.3593525797710655,-0.032086570636444996
70,7.1443473037911615e-09,0.04718669650295955,-0.8125809586878976,0.017850341214863504,0.056286194864078105,-0.07359628512581194,-0.7229836919270595,0.2463847522243753,0.07791956323533024,0.0257489720728008,-0.388063100542657,-0.013244132294433745
71,-2.3872186454751565e-08,0.0477297247512642,-0.8921874984032562,0.030827451225325493,0.056136920431231585,-0.07361917162430812,-0.8169960305005289,0.28727575176597564,0.0779204856329813,0.02750165464810958,-0.4116074664731892,0.012338072212894836
72,2.8237961988806387e-07,0.04762520429746903,-0.9582874600396668,0.045134077225392796,0.057354318599896516,-0.07347015679969432,-0.8914176356922813,0.36253006156441425,0.07793053894767234,0.030850002314320803,-0.4562768845349795,0.08851317482266484
73,-1.701689568649906e-06,0.04750332751155814,-0.9607341210333247,0.05791067803672051,0.0610773152100593,-0.07404178405477484,-0.8801623185549513,0.4316344736855572,0.0778972511901288,0.029748583264663658,-0.5162568643169183,0.1273381917693603
74,8.199292632863985e-06,0.04795238949455195,-0.9762736726959659,0.09905527929357609,0.060463111919363946,-0.06983182728217457,-0.8712542895605371,0.48592133512206875,0.0779529278387194,0.03382839272244601,-0.5529107865071263,0.19775310701558446
75,-3.365841756492213e-05,0.04338114285038964,-0.9347720817787083,0.1161908897046781,0.06075189328091699,-0.06923927719341538,-0.8750473491018969,0.5237338588761815,0.07819323058109828,0.03470749307520786,-0.5964659377987261,0.288205380307697
76,0.000115907468914311,0.0433290425660396,-0.8834389407634166,0.1622162290983346,0.06022392930843213,-0.069247516018118,-0.8133148559756643,0.5422967139553222,0.08270342437095139,0.03463924280010806,-0.6167545505368413,0.3386898020743895
77,-0.0002920567515190041,0.0434766440699782,-0.852882678312093,0.16465585558867527,0.0647062261531345,-0.06927190857243545,-0.7955581943017596,0.6082689560954716,0.08179289415725396,0.034625600584168165,-0.6303724844809198,0.3971867736208044
78,0.004307146972673972,0.04180970578115225,-0.8431955149338137,0.19225691239928466,0.06489960224446978,-0.06926166573852234,-0.7505808049740674,0.6377044810687679,0.08440389821651594,0.034634211499396786,-0.6096333835310452,0.42156777282603175
79,0.004285930782064932,0.03852361170324177,-0.7737653070538307,0.22104496042513305,0.06494872561140788,-0.06926467034706354,-0.7107319687867018,0.6625950432265685,0.08692204350455852,0.03463196277318206,-0.5897754658615221,0.4519687357574599
80,0.004127575554492799,0.03905329879472198,-0.7425942787481999,0.22696558542015074,0.06500462753342956,-0.0692639425470326,-0.6599891941498116,0.7040607809929961,0.08651975660411869,0.03462979097031343,-0.5613787801153984,0.485968543419492
81,0.005864121697537189,0.03894540339791092,-0.6871125721090606,0.21326776589295227,0.06453820866800503,-0.06926409054239589,-0.6306321075556955,0.7734392034576242,0.08659092369622395,0.03464069973837251,-0.5400296018242143,0.5105396211496903
82,0.009059927873369091,0.038962697039360165,-0.6553996740319336,0.17325672692908048,0.06745415372306736,-0.06926406742597194,-0.6010937582977174,0.7273027343365678,0.08658660794369961,0.034607822765630444,-0.5228437540569484,0.5430214562320284
83,0.008697312751200533,0.03896114919282044,-0.5931550581231113,0.1528520492660691,0.0695555000028303,-0.06926406975082218,-0.5523884041346142,0.6776732038200372,0.08643330749773283,0.034656508733354144,-0.47545706237366697,0.563811291683801
84,0.008240020850823926,0.03896096980448181,-0.5832021326589474,0.13544816177189048,0.06919633797172324,-0.06926405494229536,-0.5119526510682053,0.6286883430402531,0.08774084323294826,0.03494120812302354,-0.4767489668075441,0.6238403264544989
85,0.01267451011285602,0.038960699458230975,-0.5004245088726298,0.08760074098575923,0.06929823538453085,-0.06926417214977139,-0.48283754960880026,0.594925166502482,0.0913616463562435,0.03934922271765825,-0.45019925182694726,0.6814889499012032
86,0.013009959181654526,0.038963047046952026,-0.4588218180195398,0.03596238859930197,0.06955353248259724,-0.06926352791723396,-0.4650592548478498,0.4852872017484364,0.09083667488359654,0.038926409757478214,-0.41461535072667294,0.6689750591666291
87,0.018120265002144215,0.03895220817254728,-0.3987147976842514,-0.02274960477032343,0.07377171069132223,-0.06926643622417414,-0.43514171051572975,0.3938238098840941,0.09080885265940417,0.03856162057065653,-0.4101452699117329,0.6246832501672552
88,0.022027428159257588,0.03899345893043817,-0.3413868521533856,-0.07920892252467966,0.07493028323961207,-0.0692553822137344,-0.38396309370825843,0.3057273157907818,0.09123650541044638,0.0417518894173381,-0.3708933082104954,0.5962979447151578
89,0.02116692640675661,0.03886972501587581,-0.2775223860000166,-0.16654587691207667,0.07798185813923948,-0.06928853678292902,-0.34772488550146907,0.27365690804303333,0.0866631705638626,0.043523855580614744,-0.3628886496528831,0.5407255276915389
90,0.024065967427996892,0.03905960470535984,-0.23990835348698508,-0.2040473117808575,0.08049606042423968,-0.069237658651375,-0.30332722737612117,0.20936377586160734,0.08664417013718378,0.04324690210272664,-0.308792000391522,0.48627828592529804
91,0.025960861027129738,0.034413483066633166,-0.2159912531960473,-0.22772387618052983,0.0825226099232483,-0.06896502662368932,-0.27155367397033153,0.17742453083810028,0.08655163453833144,0.043272466316265835,-0.2974173868483763,0.4506942021223387
92,0.029054801134216362,0.03473971984961569,-0.18338908109368096,-0.24246289174654095,0.0822142691037112,-0.06453317307004054,-0.24230367394086946,0.12090581250722046,0.08658189603031219,0.04381440669603398,-0.2519112783065772,0.3981321980859151
93,0.034496365529990414,0.034598606751742526,-0.15449328937402182,-0.2489077555715487,0.08225227815415663,-0.06505985043902435,-0.2208646213043433,0.08873246219396592,0.0866116393283324,0.04806134224156361,-0.1990538033184482,0.3572520343415815
94,0.0347426000483712,0.034640424183037775,-0.13506204599072916,-0.2726509689513207,0.08227409049197046,-0.06490360648046106,-0.1770046394498941,0.05647128628672947,0.0864471002658466,0.04749558861221294,-0.16871911403753856,0.3241057922101722
95,0.03916848616109589,0.03463041343120517,-0.1082074131790122,-0.3002715252973473,0.08206731010083518,-0.06494171356973329,-0.15447135581064267,-0.006720580334443173,0.08700472412632539,0.04764579044099669,-0.14345651158708478,0.2612784831211657
96,0.039968786650445697,0.034631771697011475,-0.08252804451519963,-0.3516608720445846,0.08352492579834923,-0.06493406804232911,-0.12449370744473505,-0.04813281419095537,0.08247091628592869,0.04762210762195057,-0.1324606014353553,0.2304300890958505
97,0.04389706343457144,0.034633256565266564,-0.06281149039689796,-0.3532170011559653,0.08875998012600389,-0.06493485524509092,-0.09569216045318249,-0.07799901089387211,0.0821457981789359,0.04759416340237409,-0.11129852494459756,0.20253791868560272
98,0.04269045126453522,0.03463339745660842,-0.05023528595983902,-0.471774959231713,0.09399318195283765,-0.06493470576804426,-0.07905338340636775,-0.19474635972184753,0.07749904284225166,0.047654850963491015,-0.08192771460113264,0.1675025591586005
99,0.04649086866521666,0.034594579936168386,-0.03627029925745925,-0.49179808710134604,0.09542342864748117,-0.06494509300740751,-0.07913574743296488,-0.2912791653717705,0.07834903099290813,0.0478620792089778,-0.06971144185674936,0.08440474879200519
100,0.047491221577004146,0.03490402360692157,-0.030471507074644452,-0.4758136101654555,0.09520022756133366,-0.06486218813698517,-0.04683683883784966,-0.30736829492082857,0.07597654769205488,0.05233421227388535,-0.03925465483283556,0.03389729338999552
101,0.05164355049732166,0.03285770445178437,-0.021053445217856088,-0.45971338799621203,0.09522266494375899,-0.06532236792541464,-0.046306698771775484,-0.3007509431141258,0.0732107359472404,0.05182233620941062,-0.038389636769855066,-0.025985752078856672
102,0.05662493090119799,0.029901535582160608,-0.015434125203764935,-0.44401872170221485,0.09574170900382256,-0.062482062247704924,-0.03363960287104335,-0.2886606422309561,0.07369520812532877,0.05198805872304182,-0.029026062257856373,-0.06440299381542212
103,0.06053891820015037,0.030381207098609912,-0.007787127078717503,-0.43615276192669006,0.09999121225433556,-0.06031492787202118,-0.0312203325437011,-0.27862326001608523,0.073497585499957,0.05190821424592153,-0.026264723858955834,-0.09437582567482107
104,0.06313460778850237,0.030291084726680146,-0.008878621178744384,-0.4254934935634833,0.09951595007806918,-0.06064884388298695,-0.025556584129817272,-0.26306601370902105,0.07362513813833617,0.05206183768229543,-0.019001902443817602,-0.14773418229668397
105,0.06980029709478605,0.030304296513017658,-0.00861045390817571,-0.4174492166789651,0.09926731181877244,-0.06060352150242021,-0.022964473076514415,-0.2488601542302304,0.06907981136433974,0.05167417723578869,-0.013013969224924855,-0.15557238967244902
106,0.07159469926551376,0.03030857726437267,-0.008666450604689853,-0.382982875758778,0.1020882222202164,-0.06060498843019038,-0.02147249413199981,-0.22100242909215834,0.06858576685329144,0.056286430615524914,-0.012734842362766815,-0.16942782720624353
107,0.0739928738512287,0.030248470100155935,-0.008656899485796253,-0.3469958247340376,0.10767069761035382,-0.06060670287145457,-0.021653755062251267,-0.1913215100467035,0.06317400768107909,0.05608170130167784,-0.008245797626903702,-0.1690512253601897
108,0.07331193099640339,0.0306338773729738,-0.00865796273707907,-0.3200202754049825,0.10827132921983731,-0.060605309350254696,-0.02164991388727264,-0.17237172678594534,0.05803906485862364,0.057321337716562684,-0.008810201185872233,-0.1649886628329106
109,0.07771453416764605,0.028205731951890394,-0.008660386658225511,-0.2553700390533656,0.10822888696253623,-0.06060890207366188,-0.02164255132135768,-0.1596905222330475,0.05588775866657368,0.061062948356415625,-0.008510646367780442,-0.15239774970564013
110,0.08232031303021049,0.025622406833238253,-0.008639996645456798,-0.2267588242338811,0.10826316372696707,-0.06059466651472212,-0.021646226775331647,-0.1315694491075973,0.05672391056125917,0.06049635249572821,-0.009131746844716598,-0.15041669279670328
111,0.08308218569400869,0.026029629225163872,-0.00875687048887112,-0.19148163122585374,0.10793944492019801,-0.06064415587011846,-0.021642627521280874,-0.12499761380416433,0.052112696990113776,0.06062828165576533,-0.005249722944083647,-0.13377359625163548
112,0.08639574738381658,0.025980372420715915,-0.008208582755960205,-0.16967977680035862,0.11006042319576388,-0.06051945165511475,-0.02165404109565278,-0.12421420501702908,0.051792774559179806,0.060602408327378204,-0.004231267725160573,-0.12551073876525004
113,0.09064384289981253,0.025983975013548932,-0.01162070640499793,-0.1620600181179318,0.11298203539994127,-0.06053996875341037,-0.021614671705422653,-0.11118693116402883,0.047218272075265105,0.06060659823519939,-0.004325495639174629,-0.12551388267675415
114,0.09554217673316583,0.025595455505293876,-0.013155398105865733,-0.14445324010898858,0.11235643645346809,-0.05647679637963947,-0.021716981667129084,-0.10411376438122608,0.04775266270810432,0.06060704385700443,-0.004335025111490587,-0.11997910946065247
115,0.09837774854566768,0.020106339529424488,-0.013020472690938674,-0.13844779291321102,0.11291234323418659,-0.06116680667873538,-0.021667298156592765,-0.09949521718121049,0.04757802802967482,0.06059352652147867,-0.0043267282926876495,-0.11089630542735272
116,0.09979312097080638,0.017003824928758512,-0.013117050490738153,-0.11944504060511985,0.1083643477818957,-0.0604480560444015,-0.026268306276070075,-0.08459999221327495,0.0476536910351749,0.06068749693825013,-0.004329643629862605,-0.10659143283982071
117,0.0995297176175849,0.0172752722393997,-0.017705859697611154,-0.10926339824462385,0.10827702846213609,-0.06064534306146546,-0.02585789466435716,-0.07075265466693084,0.04752459785874727,0.060196137602265685,-0.004328854378982112,-0.10124342425011626
118,0.10404819117363369,0.01775026435486481,-0.016908387735480212,-0.09706730171644541,0.1081939872329419,-0.06059004177684955,-0.02600747221598538,-0.06301367999112133,0.04784404762603617,0.06322145149207412,-0.004329033754373914,-0.09890750159599249
119,0.10469896295688767,0.013655028172580165,-0.019180953704853,-0.0918635649887173,0.10825587692531066,-0.0606327335177892,-0.02596597707278306,-0.05797121382198147,0.04326001633248068,0.06519616430895495,-0.0043289999261723975,-0.10085775283220706
120,0.10869954337435282,0.012920735527154009,-0.0220309169391784,-0.07694497062616476,0.10811537503822895,-0.060571613351308555,-0.025975664302302963,-0.056222449802130335,0.03823524525422997,0.06490035101567224,-0.004329004614052984,-0.08308874722483552
121,0.10821703354437143,0.01278511182545503,-0.021578417497613866,-0.0734330958921332,0.10867276113421379,-0.06035217865379249,-0.025973762220621085,-0.055668853578464,0.03455616847408704,0.06493588875676402,-0.004329004393305698,-0.07320797922474737
122,0.1077851725047517,0.00751341283177219,-0.02163124389090631,-0.06967745568601981,0.10500316083132703,-0.05588449796134331,-0.025974049871491107,-0.06423115803713832,0.03292563783528855,0.06493640023301803,-0.004329004650720121,-0.06839145045294058
123,0.11164552590013407,0.003899378866608249,-0.021675785616150654,-0.06969997635790832,0.1036016839379329,-0.05641800860656973,-0.0259740294345124,-0.06924108356985285,0.030323228467575243,0.06493448645905815,-0.0043290020318580745,-0.06317138787082416
124,0.11265338560250623,0.00484352067017354,-0.021904407201713338,-0.08438948577807243,0.10398707973223184,-0.05616410599235507,-0.025974023449430766,-0.07050053587557073,0.02732727817713856,0.06493523096341583,-0.0043290156036903974,-0.060248818941412485
125,0.11255664357353415,0.001560482548239163,-0.02636246155566,-0.09276988245761736,0.09480975076976449,-0.0566165324250781,-0.025974026831198854,-0.0788473760108672,0.02578769791400723,0.06493505368192,-0.004328958055402658,-0.06071514095747646
126,0.11254601037512206,-0.00020050786247174923,-0.025849889922776398,-0.0951452460041011,0.09478039062326354,-0.05335152401253964,-0.02597402579510706,-0.07767090373136519,0.025992820644459687,0.0649349510530555,-0.004329160952631773,-0.06047919762709477
127,0.1125741172753467,-4.754119233269232e-05,-0.026006165716600797,-0.0977079838079805,0.08889381626470384,-0.04783929706953057,-0.02597402579156613,-0.07798742109871122,0.02602800074295631,0.06493545485427253,-0.004328637104212867,-0.060873877669685696
128,0.11245649930020189,-3.4805790610297204e-05,-0.0259669493392935,-0.09986578632997836,0.08615254278765803,-0.047591572130017905,-0.025974026816840905,-0.07788030635832878,0.02538367986181517,0.06493429023022675,-0.004328830959772014,-0.05624499029226621
129,0.11299445937774004,-0.004540907862717203,-0.025975315672665148,-0.09950175887639827,0.08714719514246361,-0.04297899992681087,-0.02597402361240144,-0.07800936889005239,0.01976850768848076,0.06493339250787013,-0.004338137088050301,-0.056349103889126805
130,0.10964029992086566,-0.0050167769444464565,-0.025973858846957007,-0.09959314944339112,0.0830199431075129,-0.04334562716258989,-0.025974028333806288,-0.07783636835429676,0.01698428819781594,0.06496479855627088,-0.004259462226795914,-0.05631657841819256
131,0.10794686937210204,-0.010843823046899714,-0.025974028407905306,-0.09987566277688555,0.08242961706789956,-0.04362499640314749,-0.02597405577314744,-0.08251427908819514,0.01741874984811658,0.06473078786332427,-0.0047067112109002995,-0.05590045613932109
132,0.10840050483455371,-0.013376864164349436,-0.025974033041219164,-0.10427143075544766,0.0778916679747365,-0.04094490560923086,-0.025973738188863397,-0.08169094132012215,0.01719244665959722,0.06635640792538815,-0.0019412994173735533,-0.05869768543953218
133,0.10369303000239302,-0.012560536953643966,-0.025974022976476087,-0.10392232585094655,0.07745626315519503,-0.03852697612145131,-0.02597574285937618,-0.07485059608295962,0.017565255885623354,0.07230171163665347,0.000303136692244006,-0.06077743494284411
134,0.09929210550668027,-0.01638490760954772,-0.02597402686475785,-0.10270317801241276,0.073634773645423,-0.039390931219043655,-0.02596579420880838,-0.06681929953010961,0.012923871309451166,0.07334845523327424,-4.6214786823330545e-05,-0.06095180737967248
135,0.09985825750352459,-0.021373893006471887,-0.025974025754247964,-0.09359837740092347,0.07038937707764545,-0.03477406050951751,-0.026007488957592115,-0.061983065578905296,0.013073638062403914,0.07732210278915885,3.31958445687622e-06,-0.0564131640060522
136,0.09815469746957914,-0.026115681813029958,-0.025974026020109613,-0.0907723240361963,0.06410142799968217,-0.034508892278044545,-0.025861254752998053,-0.06040466962976275,0.01295498133034306,0.07794955057018713,9.28703612468329e-07,-0.056080066546147715
137,0.09245212214954443,-0.025928873721017764,-0.025974025966218298,-0.08738894627439162,0.064979693949546,-0.029145557819009404,-0.026239529074754686,-0.0606326333210819,0.012995881848575086,0.0779392803492109,-5.107636796337648e-07,-0.05169937602867728
138,0.09055810976292175,-0.025766740943874888,-0.02597402597486302,-0.08227028059610066,0.06532012237982461,-0.02563344654346975,-0.021618952441896586,-0.05615252444620718,0.012984965534390257,0.07791276540311215,5.312473377471129e-08,-0.05088904286950361
139,0.09133060993817425,-0.027578814188910793,-0.025974025974079093,-0.07985900801183199,0.06081443503797346,-0.02611115951769547,-0.021733327704270916,-0.03731904873525588,0.012987405259311656,0.07793124161589972,5.368226503183691e-07,-0.04583465615033775
140,0.08674622355479163,-0.03337162551600687,-0.02597402597396473,-0.05056758590438352,0.06050324397995988,-0.025741370590742867,-0.02154619795262463,-0.03512542039135232,0.012986957196565408,0.07788980515354196,-2.3940247877431796e-06,-0.03808404320298218
141,0.08648450390259155,-0.03482551002946077,-0.025974025974048503,-0.04263280479610633,0.055861755147585145,-0.026709876569550997,-0.022024156745148495,-0.03137556151135713,0.012987015637431132,0.07804964338969378,8.225276605308726e-06,-0.03083617986131448
142,0.08115331968475231,-0.03457079427680972,-0.025974025974019682,-0.04351267172818676,0.056706475283912275,-0.018451702859913845,-0.019316835574185558,-0.024189881296558302,0.012987014627861523,0.07750065440145508,-1.9849237831151805e-05,-0.030267496785987003
143,0.07781647524633793,-0.03462350400825678,-0.025974025974027457,-0.04299600634333092,0.05434324516360485,-0.012984101370809869,-0.01699881482927911,-0.012439679949903014,0.012987012098363985,0.08191757934408098,-4.160787707038684e-06,-0.030306909478350647
144,0.0765127929266354,-0.03555835515758806,-0.025974025974025677,-0.04410686612469219,0.0518858297546713,-0.012560634462368015,-0.017370589545549837,-0.008467584566535402,0.012987013881335465,0.08225243041180795,0.0004628852436701499,-0.02981249019078829
145,0.07067150937885563,-0.044164242823321036,-0.025974025974026024,-0.03502330041697227,0.049389670753846045,-0.008209229173453115,-0.01730448822517757,-0.00466640778376084,0.012987009817919632,0.08174471202338453,0.004764140426938193,-0.025776623369425513
146,0.06894344097020097,-0.04301406219164263,-0.025974025974025972,-0.03443160753877226,0.04365256244459881,-0.008783526316270067,-0.017292612065527513,-0.004538934001505898,0.01298702537871104,0.07747109999497957,0.004202943371019677,-0.024502043725411975
147,0.06963260784168851,-0.04347018018813085,-0.025974025974025976,-0.024476725707916216,0.043389220930561107,-0.008642337731447748,-0.017645426296142352,-0.008893387142656263,0.012986973129445403,0.07804111703309798,0.004364916685192374,-0.020838576433781068
148,0.06505107666585093,-0.0428186151436713,-0.025974025974025976,-0.022020109124159148,0.03876492754934232,-0.008606893412028074,-0.014866213895355192,-0.009280915050936695,0.012987092744499166,0.0779253692900807,0.004299494766890308,-0.023114330432508427
149,0.06496868186615055,-0.04691824107444597,-0.025974025974025976,-0.01803494308316133,0.03908185436793015,-0.008829567030642534,-0.0076356685909852555,-0.016790218198795177,0.012987181445098557,0.07780507004468605,0.004400920456231813,-0.010746444348404837
150,0.0651151689402356,-0.04767372095519813,-0.025974025974025976,-0.011744709861029233,0.038843635228590384,-0.004837003409724739,-0.009330585584174423,-0.02507276367335775,0.012983971991867687,0.07827974805215321,0.004217092060743933,-0.008503678667261434
151,0.06350576354998044,-0.04764602080132325,-0.025974025974025976,-0.01630222052767406,0.03937713724499809,0.004619182115120473,-0.005416700732438007,-0.025357150250132535,0.013007915909070081,0.07374592966506499,0.009050256820738026,-0.008622269499658046
152,0.06046291992751279,-0.0474281012310108,-0.02597402597402598,-0.017514657717863244,0.03635278434251372,0.004144556812042155,-0.0042147684287368176,-0.03313456303528872,0.012879151523070759,0.07362673620688538,0.013082867279628534,-0.00867956357871449
153,0.05849969299978583,-0.048953524462484514,-0.025974025974025972,-0.017238594838169884,0.03425533977264845,0.0044476298985122896,-0.004311042352048968,-0.038940584994027284,0.013449962943789142,0.07375566143494336,0.014204530240030263,-0.00865116304347313
154,0.0527105099855159,-0.05239684563019416,-0.025974025974025976,-0.02205071253367611,0.03497703923494823,0.004009968988088328,-0.00399941234701704,-0.03924408892388012,0.009756770655239857,0.07224627957678813,0.017908597417931958,-0.008658664860616023
155,0.051859481246036426,-0.051849146239328216,-0.025974025974026062,-0.027574491328337263,0.03035875216114109,0.006537511488433662,0.00018222678203549153,-0.04370693510155066,0.008524641989986953,0.06870221401030241,0.01671327926214523,-0.008662576593693636
156,0.051949555192543045,-0.05196646809152387,-0.02597402597402519,-0.03805998491184299,0.03036743498036138,0.012242051844935545,0.0013964649105135004,-0.04315427527703735,0.008661353603477718,0.06983056935964596,0.02076782954510875,-0.008640869066243926
157,0.051926366047274075,-0.051944337469202885,-0.025974025974030583,-0.04595134848035424,0.030274106027168554,0.01303093530740597,0.004456114195874658,-0.04335598605132206,0.008661074810786895,0.06588588215074122,0.021477502633914097,-0.008700654562676245
158,0.05216453494528709,-0.051948097254998556,-0.025974025974004104,-0.04829788565719125,0.03031179394435186,0.012988076186951261,0.0066567547767968464,-0.04314789555029681,0.008672674859880644,0.06484703532302646,0.02597151894839446,-0.008656790604878402
159,0.05047591135338647,-0.05197894526273867,-0.02597402597411427,-0.044178005666832894,0.030300980283085675,0.013861642867055577,0.011887432364107685,-0.04374537630472187,0.00856241531173554,0.0649377245672186,0.025781904518204717,-0.0077508840657671595
160,0.04706609741358642,-0.05170072205405049,-0.025974025973730525,-0.043210565993734684,0.030302858999012517,0.022490639063176516,0.016990413602891257,-0.03927149583661277,0.009103303075417802,0.06448155739499793,0.026976063487566468,0.0006151725519671333
161,0.04817936480314269,-0.05359504633820214,-0.025974025974712243,-0.04329623909021048,0.0303051011885465,0.02149339386961201,0.017305557519495165,-0.03893396013214338,0.005705609898542869,0.060188481482182546,0.030944256593802837,0.0013931867879048642
162,0.04419545753437459,-0.0566863225339446,-0.02597402597435672,-0.04282737657942599,0.03029802982418427,0.021256224594401286,0.01756165660631017,-0.03452106339033098,0.004144645867736193,0.060632229612205754,0.029351525763889066,0.004816834884595579
163,0.0431896755617767,-0.05622584016422409,-0.025974025957031254,-0.03846851867770313,0.030300779719367663,0.024622622233570233,0.024136594578389542,-0.03298015681947228,0.004332580105836212,0.06102584988894548,0.036089584300676436,0.004194424356846887
164,0.04328840348810101,-0.056188922349068283,-0.025974026103485894,-0.03938656671083137,0.030425544377362966,0.02615931764614699,0.03115420488966728,-0.023120184522084256,0.004284197282386333,0.05761460552576462,0.042170731800945854,0.004460694212159614
165,0.04329308696881849,-0.056446489273005,-0.025974025267678714,-0.03691867616258276,0.02928240599120971,0.02596175758064583,0.02991543608528733,-0.022443887193204542,0.00501426267763121,0.05609348478429421,0.0515458946647329,0.004131929057677927
166,0.04330686777558276,-0.05179477064947417,-0.025974029169087923,-0.031822508608564504,0.025508049337787605,0.025984550961107217,0.032350999383530976,-0.014115763764711471,0.009118422654975993,0.05628930887852143,0.051881780661224064,0.008706755584693577
167,0.04318617634232299,-0.05204366333586481,-0.025974013685568408,-0.02649193501457795,0.026086596917231118,0.02579865768889715,0.042169885704525525,0.0027303640551799846,0.00853679790755011,0.05626692669493566,0.051856815657125445,0.009993563316253859
168,0.043766660987296244,-0.05193824266044275,-0.0259740641611042,-0.022646275888600294,0.025951079785023812,0.02727443353863422,0.04308785210796622,0.00438040638063768,0.008685364864590516,0.05644743963950058,0.052997455464331024,0.017966859510962732
169,0.04024696904584564,-0.05184027976858873,-0.025973955547075527,0.0009453421706179939,0.025977245037612506,0.03075490317138838,0.052415902425939694,0.009148842057876678,0.008650947273848566,0.05501030564594145,0.058335593651504064,0.019001150698742
170,0.03915388479969984,-0.052435745793700694,-0.02597382289175109,0.009568387955208712,0.0259747777313645,0.030202951550155527,0.056287225653149794,0.017913365854463858,0.00866415490693429,0.051384342660291016,0.063314125019855,0.02220044624990863
171,0.03495236687121987,-0.04857298849012134,-0.025977128359909705,0.013356275911185862,0.02597655194152528,0.030320727862973972,0.057313201007577,0.017167263701575237,0.008658168281728742,0.052516120600678,0.0675321109972265,0.021126710311604586
172,0.03465715144078315,-0.0477138360211198,-0.025953232371582844,0.012884270621171333,0.025930038497664443,0.03030221001410557,0.06224720055940524,0.01707786089528429,0.008539515130124405,0.04865355406985329,0.07714633758485177,0.0255252124845602
173,0.034604027105858415,-0.043331003840387516,-0.026080710759149424,0.013026180162087668,0.026275438666095344,0.030302680315514263,0.06996698584738842,0.01939147843732453,0.009687273343177445,0.047515023339248,0.0779153620845813,0.02597676168957982
174,0.03466068337190066,-0.03876357728931509,-0.025513458328487407,0.012922506984904065,0.024066407876503385,0.030273889906619736,0.07693768984511262,0.025150608363145883,0.013425083346036568,0.047612148481147434,0.082817517244364,0.025798894510700117
175,0.03452680911401711,-0.039061125341651855,-0.029128692333849168,0.01315292228254262,0.02170254554864076,0.030544836826012486,0.0815051900447147,0.028547829126030655,0.012999731401120337,0.04724446826461373,0.08832110096540531,0.027723221404811066
176,0.03508685788666106,-0.038832500930417686,-0.030457111324701296,0.012834411101483182,0.01862242308207168,0.02868311846395985,0.08645274783288717,0.04727125793320914,0.012540850474291437,0.04280591514066229,0.09942798519513264,0.036886910773164555
177,0.03159234444141876,-0.03944751390439297,-0.030294095508538336,0.022243205810294833,0.01713803037646445,0.02558430399340712,0.0914271991618417,0.047298221570561835,0.016658558178966835,0.04376426884189321,0.10399134244233961,0.04112749482926694
178,0.030123310105697992,-0.035868305713893905,-0.030299093420337,0.027904583873708748,0.017328702561904222,0.025936044358604318,0.0953556286725473,0.048633023424291086,0.01732423401268532,0.04105060595714717,0.10710008934487884,0.046033127445538884
179,0.03031829074835785,-0.034855313445755855,-0.030305052082562303,0.03516971252714304,0.017319664366283353,0.02634480193871678,0.09653045416108558,0.052018337030878936,0.01709169763493065,0.038512868293250915,0.10727017098067185,0.05144041820200662
180,0.030306054366701276,-0.03050449104331466,-0.03030238962616477,0.03652618227888636,0.017313999527061266,0.02188477675907333,0.10086322766623602,0.05407651583326966,0.012592768006312214,0.03941038162628346,0.12050252558155626,0.05181792880682919
181,0.030297919194008354,-0.030161955794887,-0.030303195309910092,0.03936997569991843,0.01731627026594854,0.021685759527968217,0.11246790057370773,0.056165500483712646,0.013114115328286801,0.034906105385287683,0.12117253633842422,0.05643601188928828
182,0.030324941832417757,-0.025766699791632278,-0.03030299415505445,0.03885924756348489,0.017317964193587717,0.02157284971053547,0.11759907693950525,0.05968276863758438,0.012952308460779051,0.034661064749043353,0.1273623259122422,0.056007062546998124
183,0.030194885261564837,-0.024756344022518088,-0.030303036843802644,0.03904297751045818,0.017307120968859217,0.021957056675298812,0.1166462361830962,0.060556827056468476,0.013003044740659537,0.03460543685533877,0.13466966022577487,0.057558659563646156
184,0.030766567465762996,-0.021559203530726573,-0.03030302946951038,0.03899919544218058,0.01734766359587581,0.019701785079883287,0.12129587466280843,0.06502491490565238,0.012955418622211534,0.0346558384835954,0.13589731198210248,0.06116840418895803
185,0.02713589590261763,-0.019166989909171955,-0.030303030309825424,0.043492550930312,0.017231423207146584,0.016970480731550355,0.13142748317019112,0.0750627596342582,0.013056556568193026,0.03455091797280268,0.1390859613371312,0.06000815744301474
186,0.02584376200383619,-0.01695016171536346,-0.03030303034036061,0.04401103054633549,0.017379222899363302,0.017269758433224265,0.13868533198884386,0.08299746645217251,0.013039417154891196,0.03497280847984014,0.1379784968113262,0.06400518890245833
187,0.025953041709989258,-0.017573163148940227,-0.03030303028748053,0.049520242094533075,0.012749135576548408,0.01760886421448043,0.14169193686996076,0.08165719870790578,0.017622038562839216,0.03188956747341498,0.14245582552478836,0.06474757794361065
188,0.025718184131746143,-0.013062845861238867,-0.030303030307601713,0.05414536147604939,0.013096197589848582,0.013027350910510277,0.14806168391757443,0.08477017324754547,0.017269047511502832,0.02641790473224862,0.14283049501036768,0.06922645737218781
189,0.021256064398520406,-0.00853892912463468,-0.030303030301987097,0.059494271168935436,0.012953559720315262,0.013132745960832951,0.14701309137125187,0.08638566591562812,0.016963628322171194,0.025932015463523507,0.147460443920207,0.0753663831659384
190,0.021771223820082848,-0.008031665719369061,-0.030303030302936795,0.06085389258183989,0.012995459974430116,0.012248308969796446,0.1472015662142948,0.09024332850799997,0.019758984881144873,0.02562027568077908,0.14712788654336964,0.09228675017569862
191,0.02160453043668193,-0.002258547796651152,-0.03030303030404794,0.060415510908422884,0.012985194832926459,0.006612708835442546,0.14720597693181273,0.09077460646497719,0.021944687853644236,0.021458972796284354,0.14686464938110425,0.09198859599974554
192,0.021685809342601566,0.0003139279547874147,-0.030303030300840524,0.06507133518223837,0.012987334338627912,0.004046578515192214,0.14726630242067806,0.09531190950734161,0.021578593121396483,0.020290256381533384,0.1494341408851768,0.09589616582381284
193,0.02152580102411774,-9.625098934303131e-05,-0.030303030299545897,0.06487631190281484,0.012986974224293218,0.004271674232318446,0.15318419703537414,0.09627325867834165,0.02167418853027729,0.016850563929182587,0.15184336120393485,0.09467207010995386
194,0.021955511169327327,0.00011549668482862003,-0.030303030376917565,0.06472828238776683,0.012987012468067289,0.004701844100346844,0.1610437444476068,0.10617373498105277,0.021939513916652543,0.017406305893889473,0.1514618969352117,0.09877154729554116
195,0.017371823395170197,-0.00019841904906122538,-0.03030302978118388,0.06652860129151912,0.012987015055697956,0.00027583898885156057,0.15955689424609606,0.10803039820263448,0.026433333253714907,0.017328584393907304,0.15151985446781382,0.09969108405797085
196,0.017357162892520407,0.00445157783110166,-0.030303033052202236,0.0717643342003297,0.012987012165027621,7.598308408460501e-05,0.16278783272797737,0.11071290531207377,0.02551022640774387,0.017252987069745818,0.1515150411462047,0.09973471310218482
197,0.01750069207968311,0.0042662827637484305,-0.03030301818622664,0.07696809468757429,0.012987013225370988,-0.0007128622053739367,0.16476542462374527,0.11295411488724609,0.028159535986013746,0.017245109294716347,0.15152645350101257,0.10406798500582186
198,0.015871953902966064,0.004145288438675936,-0.030303075609096015,0.07812203562051846,0.012987012929123652,-0.004459515220625067,0.16446443881324527,0.11218898074422526,0.03063900232382694,0.012665694928797886,0.15143618825566188,0.1050947915373105
199,0.012430559200334349,0.005815879558874329,-0.03030289617602082,0.07784145651677417,0.012987012998967684,-0.006215995547231922,0.1645045475658022,0.11679941474711261,0.030246510836511895,0.0131048054678278,0.15191933461183088,0.10830855620595016
200,0.01354868987975813,0.011623358126899345,-0.030303232423308374,0.0825008647870572,0.01298701298503372,-0.008614462178542281,0.1645155531135577,0.1168225036541135,0.03030886461665275,0.012961200368421903,0.1489381130753187,0.11069401939867383
201,0.009581366384956562,0.01318006733914401,-0.03030413518167616,0.08193067057135901,0.012987012987208987,-0.011779723888784075,0.16438702365877647,0.1169122421664654,0.030303499495540495,0.01296196095993006,0.14691191036254775,0.11284199524209611
202,0.008553421563570163,0.012966638571600943,-0.03028995519182647,0.08374956274799214,0.012987012987025951,-0.013217045125411896,0.1651789838725264,0.11687081720056978,0.03030257004748595,0.013107714814328295,0.1472406812098334,0.11251514497488115
203,0.00865701957602952,0.012984006468735721,-0.0303858419656631,0.08701047878157907,0.012987012987101434,-0.012929578077582613,0.160245220543271,0.11690207844959052,0.03030319433212882,0.012631938816155265,0.1471735515822033,0.11255528737772191
204,0.008671688912284726,0.012891700648695287,-0.029891067580349647,0.08648789551081751,0.01298701298628786,-0.01756292891313866,0.15516619534517176,0.11681498187845993,0.030302985700388082,0.017166535078670782,0.1468875701753959,0.11255547646486275
205,0.008590735248645542,0.013900447150575108,-0.032922460650620586,0.08659619420434317,0.012987012990833015,-0.01720653772271108,0.1558883871465304,0.11710927570995804,0.030303040459298106,0.017269001647355602,0.1417710433945237,0.1125538068484156
206,0.009019271221957165,0.01778782320857384,-0.034894696902914586,0.0865782088021278,0.012987012970244648,-0.017348832247316596,0.15601012636095918,0.11636276524432564,0.030303028337220338,0.01729149547796466,0.13653704726123828,0.11255248313340262
207,0.006405211787498323,0.017177901280984655,-0.03459626797514343,0.08658003323778571,0.012987013049540877,-0.01730793674210093,0.15143072384754436,0.1256153569620356,0.030303030727404194,0.017630691023708688,0.13432280898255428,0.11256254586086545
208,0.003997619371579304,0.01743111269150472,-0.03463321728800386,0.08658024403536452,0.012987012802163269,-0.017317693862643972,0.14717998282103137,0.1255054596183548,0.030303030181594044,0.01526653442163416,0.1312659103338584,0.11252071131224213
209,0.004384904937472701,0.017021076542535995,-0.03463329121322161,0.08657968882826778,0.012987013266288459,-0.017315740536295962,0.14546430878565025,0.12455329965435537,0.030303027753697885,0.012625232240163832,0.13000359344664153,0.11266066777012579
210,0.004323056314391034,0.021154039023091587,-0.034631461335064756,0.08658202652943599,0.01298701449483686,-0.017316044403152417,0.1356923908890521,0.12073095906597234,0.030303052983514347,0.013051360414096994,0.1259379298240208,0.1123447024368038
211,0.004328606510318291,0.026054543389203235,-0.03463224117939217,0.08657141022546924,0.01298699508018958,-0.017316020177865918,0.1348931094153601,0.12131891287498069,0.03030289927142439,0.012979207031704916,0.12087123798359184,0.11699286223191514
212,0.004329449731934594,0.025905944051661137,-0.03463183091438687,0.08661318370407514,0.012987126590780093,-0.017316014875568105,0.12830842600266196,0.12122144287463306,0.03030364134145951,0.01298692325137884,0.1120664445745087,0.11679342139422853
213,0.004328840386487268,0.025997870899631487,-0.03463268826836125,0.08647891891833481,0.012986446588843875,-0.017316018311240446,0.12491849121554084,0.1211162073302671,0.030300636558785742,0.012987420013831678,0.11168886217182702,0.1168933872886894
214,0.004329050356186517,0.025967577157229985,-0.03462989218148346,0.08675390896906243,0.012989405247107276,-0.017316016323016985,0.12599863072404568,0.12138293576524846,0.030310545747835378,0.012986851995943488,0.10669660424417435,0.1169892865040878
215,0.004328993348519021,0.025975480370641846,-0.034636911750477097,0.08210648357518184,0.012978487284860906,-0.017316020657426608,0.11176321151072278,0.11672833688928538,0.03028925185923025,0.012987059215823367,0.09829100275284965,0.11638995750743934
216,0.004329006764474608,0.02597379350304044,-0.034635274856337835,0.08234859759057642,0.013010095781526846,-0.017316005449569936,0.10360589134397058,0.11711826104405006,0.03026022741968811,0.012987001932180364,0.09561133340288881,0.12020241958689254
217,0.004329003259841688,0.025973944115851987,-0.03450406113391556,0.08221559678412023,0.012967386926569706,-0.017316049519472985,0.1029409330517169,0.11580672133495916,0.03096657461394521,0.01298701521144965,0.08780206624009208,0.12102878927926199
218,0.004329005621222167,0.0259741201239608,-0.03568220471610372,0.0822733248648162,0.012664907323284087,-0.017315991693863143,0.09789096359811954,0.11062576899686234,0.03509018086228603,0.012987012637574584,0.086486718961467,0.12545994254758153
219,0.0043290086465603995,0.02597576236310476,-0.03942681320472243,0.08219168480106136,0.00825507939650411,-0.017315551715733415,0.09017368744124211,0.10527616897691226,0.03451053271686597,0.012987013015679342,0.08561601151472026,0.12547244346287673
220,0.004328943458005732,0.025958125328903934,-0.038847394708964395,0.0824572013343689,0.008776310226881199,-0.01732027803318846,0.08325233672083174,0.10400396770628653,0.03465936533454146,0.01298701299267645,0.07140166219996043,0.1255685779402453
221,0.004329406448294608,0.026066910509715466,-0.03899247646594187,0.07911283386503051,0.008657102992774644,-0.01729112894560025,0.07857547368488818,0.10046452452145228,0.034625908728746345,0.012987012983839344,0.06966924626715135,0.12555641186383484
222,0.004326951935056389,0.025536477049987214,-0.03893007571016196,0.06940224186597065,0.008539849973880395,-0.017433258148553298,0.07377304148003824,0.0952944488328836,0.034635716608367534,0.012987012985207921,0.06580776811682787,0.1254261868369723
223,0.004337857323284376,0.028837480315975186,-0.039010162515077954,0.06934927548500691,0.009080406617542622,-0.016850146775759894,0.06403828520921276,0.09525969356996651,0.0346315253621337,0.012987013001813173,0.054091749141931565,0.1260068396485961
224,0.004296560328516618,0.03051408342576834,-0.03912149986886665,0.06942820664624834,0.004743323245712307,-0.020805384388658366,0.05390259789510964,0.09543258575068557,0.03457160290190435,0.012987012923410401,0.05198542241425405,0.12205073226288676
225,0.004422228248284592,0.030281425915275006,-0.04364578574319152,0.06780813060177868,0.004331391950347575,-0.021725651895011883,0.047121740637786055,0.09376896523839946,0.03512562529017844,0.012987013210769362,0.04807382077303619,0.12113375819089296
226,0.004206070749553305,0.03030120789327781,-0.04316815283720285,0.06448372894720622,0.004300506795340556,-0.02165182581822558,0.046119499335777685,0.09047947703709014,0.03132673306480022,0.01298701240931552,0.043036850628206245,0.12120942345793555
227,0.008846678969405762,0.03030477627237834,-0.04332290116308037,0.06506778097043052,0.004401125754982826,-0.021638449452646483,0.040042729077187166,0.09096296739685378,0.025173406441102036,0.0129870132168341,0.03344073631925402,0.12113770975583417
228,0.008555504508279537,0.03030240752825088,-0.04328252480159024,0.06479111172170789,0.003972132983179027,-0.0216477375251673,0.039008400383464745,0.09102625955486728,0.026017409894326396,0.012987023222032873,0.030004558621377735,0.1217743198331062
229,0.008691034063629796,0.030303200341058587,-0.04329152548473576,0.06522814149537777,0.006559181528018341,-0.021642345972592972,0.035501715269468624,0.08760019775730071,0.026320450697089118,0.012986926289230009,0.03071255726948451,0.11755540513045165
230,0.008649896260629054,0.030302991556928283,-0.043289711410485925,0.06058733901121577,0.009109302665674578,-0.02165402746955479,0.025880518146225735,0.07793841196452812,0.02183902383963915,0.01298750567453449,0.02799051795057891,0.11171046629372844
231,0.00865759602733448,0.030303036877981016,-0.0432901905431105,0.05970890344459779,0.008212422557433272,-0.021612744961643216,0.020455505433678238,0.08733530805477663,0.02169283030261099,0.012984730655689492,0.0234171293062083,0.11291265754755023
232,0.008665948736866973,0.030303031625913704,-0.043291514934030474,0.050970906448176846,0.012677888988786992,-0.02173436716672674,0.012442680166019284,0.08628804544059887,0.021602870980507196,0.012995951507502022,0.014043888965591788,0.10944127902900301
233,0.008635908274488874,0.03030302809130155,-0.043275464322718844,0.05258141177294972,0.012936776034624141,-0.02155998174771666,0.011470827917487653,0.0866772888724884,0.021745942272014134,0.012958687415237194,0.012918845431164654,0.09973327800856142
234,0.008674616791253531,0.030302999111804407,-0.04337789880507162,0.04952741471946797,0.013573968776286124,-0.02620309612391986,0.00843156796348998,0.08649333563703007,0.021189016625905555,0.0130418481462847,0.012645062719933117,0.09968009883958213
235,0.008985259076566708,0.030303327420484104,-0.042865567388005545,0.04732106553784203,0.017736642248198185,-0.025865018514281357,0.0065369440797554655,0.08683972304490628,0.02449964595685621,0.013119337852897421,0.008200534164937509,0.09945858985503424
236,0.013450558896574922,0.030301271138694397,-0.04601410777051312,0.04766558813291734,0.017284659520740632,-0.026007534101684028,-0.0027132808013314875,0.08580075069348868,0.025756413472453898,0.017663874272013533,0.009162164989597921,0.0999238698492204
237,0.01252576595915911,0.03031138905594764,-0.047861244135303654,0.04761596602484556,0.01694640490146702,-0.02596547397538702,-0.008543904989765115,0.09485211563584836,0.029948681724196638,0.01719491272078963,0.006268033890392603,0.09740499641487808
238,0.015124333019274768,0.03026953785005894,-0.04758871628151078,0.047621778779018555,0.02015819986759806,-0.025976485691158166,-0.008650435885257912,0.09533999570153891,0.03032948411639139,0.017346846853842357,0.004799261388550907,0.09489503826984175
239,0.017662623612118695,0.03041260751291753,-0.04761908995008771,0.04757337957247757,0.024743882593282095,-0.025971466823969114,-0.008486666049818811,0.09998366254135269,0.03494334636089136,0.017317402675439336,-0.002124731893903291,0.09529833350250987
240,0.017262373720443754,0.030069469690040016,-0.04762048647602276,0.04791937134994705,0.03427392449435803,-0.0259788725313195,-0.010004348062169603,0.09942687919202473,0.03465602117271531,0.017285320996726024,-0.00851397790989078,0.09522740216239528
241,0.017302487455237808,0.03471110141222445,-0.04761845670691346,0.04570439389954677,0.03449799318765168,-0.025980775808514135,-0.013015105126315676,0.09960441506638645,0.03384969182554754,0.017404003911673606,-0.00865485270784785,0.09523139247174577
242,0.017315396268287157,0.034545604092042874,-0.04761922984954315,0.04289796147671312,0.03541200761721648,-0.025818253632265427,-0.015557982729088978,0.09955885042795004,0.0397142730588923,0.01723687058051468,-0.008523429008485113,0.09538388561967473
243,0.01777168152658422,0.03464962847786796,-0.047618961519968306,0.04339396847206339,0.03913652065275034,-0.027196144162542544,-0.017279359886907972,0.09956804023176388,0.04297984818018333,0.021877054569281535,-0.009800530678507325,0.09409013993102008
244,0.021830384747898574,0.03469992175349309,-0.047619228128221225,0.043193926094714376,0.04058298351328325,-0.030372769207721178,-0.020748219429115755,0.09956862148571112,0.05057364463191765,0.0215358341548709,-0.013456711653717522,0.09044802536644571
245,0.023107756782925443,0.034298140968438126,-0.04761849786192197,0.043359682695761265,0.0453201201632959,-0.032678057820586685,-0.02592009650903297,0.09956570810412843,0.05205841827170819,0.02167849442898317,-0.01284732555536863,0.0910155705421457
246,0.026400972098960303,0.03731902749811022,-0.047620157078983504,0.038725266653357196,0.0543529482586284,-0.03493820528763331,-0.025928957545371365,0.0995422991181686,0.05227867836756097,0.021636634013190183,-0.013128496025674573,0.09088874029289498
247,0.026003212874518657,0.04284753683308421,-0.04762110614179176,0.03906728172538514,0.0562133058731384,-0.03458825685906297,-0.025994874154554384,0.09979485835043576,0.05645770349930756,0.02164679830342551,-0.012642693154036613,0.09091158023685071
248,0.025583612271115965,0.0433119856166292,-0.04757930925068107,0.03894505249536625,0.06049702126658532,-0.034633878087316626,-0.025967646165840373,0.0980206573300007,0.05757749170298145,0.021644717159443858,-0.01720086335920944,0.0909094533342466
249,0.02997789992966835,0.043295789722073805,-0.047896058388412564,0.03888674045142961,0.06047906565370351,-0.03462760186027295,-0.025975629150778865,0.09510952406892197,0.06119907546500259,0.021645056499977337,-0.017252315672870725,0.09091466946407142
250,0.03029010565363815,0.043340588505544175,-0.04583454088211609,0.039292044715039276,0.06125513693068404,-0.03468736747589153,-0.0259736840100167,0.09302700686183224,0.060005199302081466,0.021645025495187067,-0.01740068648707263,0.09085293537396678
251,0.03019198727223999,0.042954442394326144,-0.04287925534914421,0.03598082089156232,0.06682638667170877,-0.03429646745782615,-0.025974085340872158,0.08713275517356903,0.06418414602221771,0.021644967330830177,-0.01697144428417308,0.09124644280358517
252,0.03136063417549445,0.045423443264859316,-0.043401767406533676,0.030506290185880032,0.06956031483904629,-0.03675813416169125,-0.02597401917585297,0.08675963420278944,0.0647757858483803,0.021645398035927577,-0.019443826358820533,0.08877521928738726
253,0.035173608254276734,0.04793432079812662,-0.04318221847066096,0.03026343301565894,0.06931740846048913,-0.03930732597132692,-0.02597402573657782,0.08219893135251773,0.06933616778762078,0.021643028710355793,-0.02199322325140237,0.08626503344489264
254,0.03418768630991895,0.04766999764295058,-0.04342834082196319,0.025612297009039324,0.06885243406608467,-0.03890901600448428,-0.025974026393069553,0.08244286997137028,0.06946333724518063,0.021653809477672533,-0.02158511702502252,0.08652870231040795
255,0.037203703234458055,0.04738062465853293,-0.038782458769466406,0.026371839092559104,0.0731570595279625,-0.038950090834240794,-0.025974025814334768,0.08134296382707629,0.06696744672317605,0.021612370168642016,-0.021651659525336896,0.086819434840373
256,0.04270646759845133,0.052011583465036856,-0.039062525757900514,0.024163710792392365,0.07359382297418597,-0.03894299451384437,-0.025974026019318704,0.07614382126693635,0.05970433346080403,0.021739536511189705,-0.021645347007129796,0.08218851500518891
257,0.04339036553614245,0.051861493709945625,-0.03892797258883303,0.021571141981359992,0.07372397943207849,-0.03949608721388976,-0.02597402596323336,0.07091215439511706,0.06069818906581739,0.02152213372981665,-0.021644578338302065,0.08231041251884696
258,0.04345760265907503,0.0519801684970743,-0.03896970083700952,0.019168681769061932,0.07261930182683636,-0.04373524773293914,-0.025974025976275277,0.06905205018081433,0.061004305814213004,0.0261711058916076,-0.021645186264031998,0.08241723576376528
259,0.04780352465946516,0.0519391123026858,-0.038959110521054885,0.013496154785988647,0.06879995845021122,-0.04316607736287236,-0.02597402597342193,0.06919391957257004,0.056867690603862646,0.02586555678574181,-0.021644975108143713,0.08087791593851261
260,0.04869673310216355,0.05195012028205476,-0.03896139584382571,0.01295997962498309,0.06937733698138468,-0.04331891549895614,-0.025974025974494407,0.0694427395531514,0.05623285876778113,0.026030642330869873,-0.021645035567105984,0.07506263402813293
261,0.052440228755571784,0.051947700603175696,-0.03896099112105327,0.013032776186899011,0.06924265112339181,-0.04328442674487921,-0.025974025975855717,0.06484418943242369,0.05586931337979518,0.025852016025826114,-0.021645007496492882,0.07340369432652162
262,0.051834815467623745,0.05194795674010519,-0.038961040258326744,0.012261712304011256,0.0692604891837265,-0.04329086830193752,-0.0259740259501783,0.06420096696401648,0.05198465473965021,0.02644181431641026,-0.02164505665020028,0.07355581924398716
263,0.051967811120978674,0.05194823924484867,-0.03896104007618173,0.008521880138863848,0.06927957676302597,-0.04328999654420502,-0.025974026128605384,0.061101629377724745,0.04902883133842675,0.022608765758942856,-0.021644978866021205,0.07367580719680235
264,0.05195197526838868,0.05194971977391722,-0.03896104400643712,0.006748094658598501,0.06928710144016799,-0.043290049458161256,-0.02597402519595072,0.0545613240956589,0.0422864652609243,0.021532807125724456,-0.021644647700450808,0.06878542304694507
265,0.051938119712383164,0.0519306864753635,-0.03896100555060101,0.00437425483778807,0.06872873600941765,-0.04328977842647718,-0.025974029275152046,0.049003368479612654,0.043923280357907254,0.02164186719513107,-0.021648911851234968,0.06464221529937092
266,0.05188196795121067,0.05205382073281313,-0.03896119700688547,0.0012074073229338081,0.06442134350276901,-0.043291717123076924,-0.0259740142025268,0.05254826644247691,0.03978665654284658,0.02177324170181483,-0.021621328367445965,0.06504981126045524
267,0.05272598516144391,0.05143656736402585,-0.038960407157263004,-0.00023351111989804792,0.06542707061204174,-0.04328193369257407,-0.02597405762117069,0.05157851386222295,0.03879371427166413,0.020607363386335568,-0.02175959911448782,0.06479731700012827
268,0.05642555746856376,0.05505778676756417,-0.0389631226059852,7.07045806748539e-05,0.06257115297315219,-0.04332308075283211,-0.025974001836360654,0.05619575536761363,0.03869504595049287,0.016851270742908063,-0.02117829364542002,0.06540672583778673
269,0.05812131572589617,0.053522945448483066,-0.03895638818077652,-0.004563372593116872,0.06006085849198567,-0.043179337412297646,-0.025973564243937833,0.05596535030304768,0.029133612217792062,0.01742709181006617,-0.025048471681389267,0.06153090226711148
270,0.06097933311939085,0.04786870388109358,-0.038957040944981015,-0.004221550581326154,0.06139572194195192,-0.043542743708628366,-0.025978225062979365,0.050695279488832456,0.02445023187841438,0.017293104677225918,-0.02607266136484491,0.060507170789319914
271,0.06064653341815959,0.04762732243385675,-0.039090410295057935,-0.004361785875886875,0.05235172075532211,-0.03891154517172016,-0.02594948112304267,0.04726903215633545,0.02156784674207356,0.017321466349558147,-0.0259773916380384,0.060602441759140195
272,0.06030097034791769,0.04760493335156992,-0.0379109107929909,-0.004320787217250326,0.05201705350616024,-0.03914184714039761,-0.02609019838549147,0.0477069779075835,0.019497608560889463,0.01731252633724969,-0.025968018892045735,0.06062158879660698
273,0.06485018275196727,0.04761953238267671,-0.034066370342056985,-0.0043307384978624455,0.05204482594358258,-0.03810676119060015,-0.02550746052349743,0.047599709174899765,0.014122194629240168,0.01730161944177248,-0.02597630306203584,0.06053277851444282
274,0.06481129517108287,0.04764504408730628,-0.03519460240214875,-0.0043287535643998735,0.05086171214947059,-0.032439427019736844,-0.029406318364573282,0.0476244562194482,0.009302119166130579,0.017498412068439682,-0.02597338557259983,0.06098865674379036
275,0.06559286138247324,0.04749675965596075,-0.03159666080157,-0.004328921741235795,0.045987488784563595,-0.030003524224132112,-0.030397876204961708,0.04761379140347855,0.004371351170002521,0.015988838452596143,-0.025974176333820098,0.05818961501028401
276,0.07114120214028245,0.04807809681357234,-0.03012478359322556,-0.004328910347495745,0.03823087800645632,-0.030361877678366112,-0.03030669159869216,0.047615049398791964,-0.0006735273097747297,0.012646489094761355,-0.025973996431144227,0.055979188143920694
277,0.07400075484517686,0.04393282591726307,-0.030315156701249638,-0.004332218787317293,0.03138371523129598,-0.03029419828179535,-0.03029704560254679,0.04775353119552727,-0.004233217091555475,0.012619965767002346,-0.02597403040786147,0.05632172530822799
278,0.07318936206276383,0.04325861394080194,-0.030293351892228218,-0.004305172354381035,0.02648344791268415,-0.030303617972571813,-0.030305298412940627,0.04652752921080906,-0.0071950070002051135,0.016259342561244693,-0.02597402567909261,0.05627413319702935
279,0.07650099456364587,0.043347691677475986,-0.03047024173151692,-0.0044572883092053395,0.025931556273715087,-0.030303225713488913,-0.030302388691740102,0.04292723727610549,-0.015759722116462954,0.017422013970718898,-0.025974025876581062,0.056276435814459375
280,0.08200303524040396,0.042473170067129286,-0.029058198751369384,-0.0037553181861716607,0.02574391871296882,-0.0303029241455318,-0.03030318258094323,0.042945413054862554,-0.020243212100156095,0.017321299988075693,-0.02597402602013501,0.05627355677287833
281,0.08224420787723093,0.03881254353656223,-0.02550956632279872,-0.00781603493933469,0.020457657468602338,-0.030303064213407328,-0.03030299980099063,0.046304585595155094,-0.024596127812751237,0.017703919656269225,-0.025974026001419077,0.05630184091722603
282,0.08688828489590993,0.0370528263708877,-0.026111205353497816,-0.005214903454086423,0.01690948202780453,-0.030303021595883124,-0.030303035078027035,0.04777602266574388,-0.03434619258476265,0.02211703076318868,-0.025974025761666724,0.05615532737273494
283,0.08628790822398796,0.03411518173560348,-0.025833884939887426,-0.004256387779408284,0.017714724641389762,-0.030303032189141575,-0.03030302991423263,0.047647089628776215,-0.03496668200324725,0.021255388301735876,-0.025974026863165488,0.05677715395265543
284,0.08782725179955704,0.03514605922728967,-0.02630982707403872,-0.004300200661728269,0.0150448243374579,-0.03030302996992538,-0.030303030223746467,0.047803879793302514,-0.043932664006792466,0.023497574752619193,-0.025974022957293112,0.05278909743167749
285,0.09351909892670353,0.030641245584826986,-0.021743163386210313,-0.004526413876185367,0.009416319602491681,-0.03030303034319069,-0.030303030353539376,0.052368357321000494,-0.04418936862862208,0.02918397619529885,-0.025974033073671514,0.05211053021114643
286,0.0955792441399292,0.030287994726202017,-0.021682501657054955,-0.0029620245545729697,0.008551844415869012,-0.030303030304148916,-0.030303030285455446,0.051498816310184777,-0.04942733231104124,0.030556058265380773,-0.025974029082548797,0.047586713265095296
287,0.09489589101002711,0.025164991092610833,-0.021823400021925767,3.9908165212307225e-05,0.008662214262539112,-0.030303030283852256,-0.030303030311226897,0.05402354691925653,-0.05708562455077026,0.030086681527036578,-0.025973851377501765,0.04770600990888519
288,0.09899009730724571,0.021333808778022934,-0.020223932715681542,0.002515866413375565,0.00906958729898548,-0.03030303043360621,-0.030303030286223165,0.0561863534045513,-0.06450490223669152,0.03474569831569992,-0.025975359647590856,0.04758532717954955
289,0.10393938671500322,0.02172667177720606,-0.016871347574594103,0.0045480616445147965,0.013408028911690167,-0.03030302959722409,-0.03030303035943407,0.059445534065771376,-0.06471508820926723,0.0345733504281293,-0.025966772207551045,0.04762863075015974
290,0.10379753600907886,0.021656045073162964,-0.017412440342745233,0.004465896916939827,0.012862429637850134,-0.03030303346735921,-0.030303030152661517,0.06074981002415589,-0.06928430424637788,0.03443568968325749,-0.026006557219698127,0.047616767981162066
291,0.10419265419720831,0.021528173893310715,-0.017298825241674275,0.004203603703971076,0.013017719691882786,-0.030303018351411443,-0.03030303041137778,0.06060217055732225,-0.06918227181457955,0.0361733114980438,-0.025851153881758824,0.04761954297426445
292,0.10212972577618976,0.02200402041746903,-0.01731813169443902,0.013381661235561655,0.01298057725987893,-0.03030306582051924,-0.030303032549318973,0.060625887695324704,-0.06928637459313376,0.041558562194377154,-0.026339174173769467,0.04761884368143133
293,0.09948695659522515,0.017500272749784964,-0.017316029455460062,0.013645329253708883,0.012988076923555603,-0.03030297782811185,-0.030303010064255054,0.06038474948544043,-0.06931098675931514,0.04624482075258876,-0.021821086645139154,0.04761925236193263
294,0.0971138609476654,0.01741211486838022,-0.017315910284281016,0.017847763092959455,0.012986963139082984,-0.030302721969508704,-0.030303148214004986,0.06212419412870063,-0.06901424521753356,0.05149887743181233,-0.021693252627989094,0.04762022270816037
295,0.09151677276964724,0.01669182389951059,-0.01731606660508294,0.01719085396084904,0.012987089965444168,-0.030306602887184148,-0.030302473409853183,0.06526890218222625,-0.07021124906998408,0.05197626937606021,-0.021613908144961173,0.04760544718190717
296,0.09075308925349151,0.01143006946229515,-0.01731596883948972,0.017310884820108743,0.012984901906722999,-0.030280599343828617,-0.030305262328966947,0.06632986517427722,-0.06181697637382656,0.05214067265922212,-0.0216767926470911,0.04770443516880065
297,0.09061721524144668,0.006608210338060925,-0.017316185102087878,0.017421734399697034,0.013002308444166447,-0.030413482001738584,-0.030295659103038438,0.07959948832244729,-0.060652986086659505,0.05819871488062473,-0.021530098375188163,0.04719859420417611
298,0.08174282128386155,0.0018013465118839236,-0.01731537564140998,0.01707007284449808,0.01290548169924832,-0.029845715173722406,-0.030319457215179008,0.08299731536646446,-0.056052245935758624,0.0672360218120943,-0.022111810619887227,0.05032369932202806
299,0.08117553605565267,-0.003544749006055314,-0.017318047122000434,0.021700134106368025,0.013350088561363913,-0.03361746366509437,-0.030317734888570723,0.0734936630160736,-0.05639569410817715,0.0695057333875993,-0.018299753710680707,0.05218883366285892
300,0.07810542969322044,-0.004395195435638018,-0.017312020231782334,0.02156100678148998,0.010303297963887372,-0.03481735845479309,-0.02982563242600946,0.07374348212777875,-0.05624986849224666,0.0691791672581779,-0.017205138319090367,0.05192368514767262
301,0.07344167679971249,-0.004325929362857434,-0.01730743906685524,0.021676696466771957,0.005225143346990974,-0.03464626806070469,-0.025269702836758657,0.07354470741286505,-0.0562335464636193,0.06938949019508761,-0.017315077379147472,0.05194875480908788
302,0.06603549811374826,-0.004816401802179494,-0.017468505208281436,0.021636044908312013,0.00019503700859061683,-0.039248276848118345,-0.02781608747568115,0.07356208675740453,-0.05649154103629641,0.06901098475598452,-0.01732182024053342,0.05182938506384501
303,0.06109860199014483,-0.008843007961348279,-0.01614927730774281,0.021647321208532654,0.00010200991013788137,-0.038848189655852586,-0.030683995990897852,0.07379951200763582,-0.05368803292506795,0.07364622290290332,-0.017312477061997303,0.052975468520093716
304,0.06068923589835016,-0.01019888984957984,-0.012526073259375322,0.02164390651745985,-0.0010458016479986058,-0.03898661799664911,-0.03022689848249996,0.07147691685663822,-0.04390441926377229,0.07401608192415855,-0.01732381829176024,0.05674266990780693
305,0.05599085309078492,-0.013463736350994243,-0.013093994082834055,0.021647171893743523,-0.011724697213619295,-0.038985753768813726,-0.030314899707228116,0.061821965795121614,-0.043319944362831694,0.07867384135611029,-0.017283496729815644,0.05616595720568041
306,0.050268884675547215,-0.012774659401115293,-0.012966110621144798,0.02164165260483579,-0.019972869156265106,-0.0388386205598992,-0.030302079085315976,0.060514813015622365,-0.043259814629854614,0.07601096274368,-0.017439393201715933,0.056299307547920806
307,0.04239410422429932,-0.01337322231700272,-0.012990146137733022,0.021629672606444824,-0.021429225581955116,-0.039335056082119665,-0.03030282146639769,0.0605904077711744,-0.04323122767294124,0.07322251497799905,-0.01694368216751018,0.0562735952588957
308,0.04383321185971082,-0.008854038544998723,-0.012986802900694977,0.02183845484903538,-0.02473883957612308,-0.03482617385669776,-0.03030322763524603,0.060567203449562845,-0.04367672155985387,0.07366526651754923,-0.021447834936423354,0.05627733121034712
309,0.041013121028764206,-0.008702080258652658,-0.01298694376237036,0.020251850791332893,-0.026228332031945613,-0.03466181394157548,-0.030302535990540447,0.06093091497548363,-0.040805401351895185,0.07358238691239812,-0.021600343681290712,0.05627713796032214
310,0.03583887642903085,-0.008631171986539909,-0.012987051011999628,0.017382363266748024,-0.02585568273915982,-0.03478451637782173,-0.030305306241216086,0.05854766677650937,-0.03867734091121959,0.07359373632419994,-0.021676469469557372,0.0562767665996108
311,0.030984621022151704,-0.008666831977110857,-0.012987000707521519,0.014346206871586095,-0.030434152193782583,-0.033334675453558886,-0.030293457071627738,0.05639669352953336,-0.03900125068818246,0.0735933215846122,-0.02160767862106331,0.056278678938289
312,0.026129793748801762,-0.00865570354142833,-0.012987016187582186,0.015949118148417422,-0.030974856712301758,-0.02974175027458111,-0.030336990552626474,0.05297764063151545,-0.03895919660006279,0.07359301221830887,-0.02178883346268327,0.05626904968342962
313,0.02146851081971734,-0.008658516124569578,-0.012987012273664228,0.017488538170551026,-0.03522165624105488,-0.030858744627965378,-0.03021269130373554,0.052136863312214635,-0.03896028835853843,0.07359267152672526,-0.021053904163901602,0.05631046379602226
314,0.02174424896020056,-0.008657917710596066,-0.012987013133355586,0.017310546062602548,-0.034052083351201204,-0.027002555848973583,-0.030364258973157737,0.04767298568632836,-0.03895742034375141,0.07359522231118697,-0.025393394181834377,0.056161312299804554
315,0.021530406123129908,-0.008658018181364276,-0.012987012928280516,0.017314686717272848,-0.0374810329055173,-0.025776478503615315,-0.025821535768243798,0.047406308580683655,-0.03898560790217166,0.07358422521054828,-0.02220924142591678,0.056564802394549286
316,0.02207641231936634,-0.008658008741616529,-0.012987013006132385,0.01727645111525956,-0.03877255406243755,-0.025979034568459614,-0.025198511685714024,0.042182680279082965,-0.03884394513423418,0.07362307060512019,-0.021643540511029263,0.05195247545954322
317,0.01892680971447279,-0.008658049707440788,-0.012987013699017967,0.017560826056092008,-0.04279869125587261,-0.021481797265812473,-0.021145086316761926,0.03711751318481743,-0.03942682447922899,0.0735221267724127,-0.021625073579482512,0.05202990208465107
318,0.017073295198105687,-0.008657673670623008,-0.01298700690060659,0.0156161114622718,-0.043297079482714065,-0.02075624624349641,-0.02176984532121025,0.034310938685354925,-0.035461063739949554,0.07356664653229404,-0.02160868574705646,0.05186853066493904
319,0.017341594356443783,-0.008659874153458758,-0.012987047810150075,0.009690234429814296,-0.04331036848965869,-0.016836063759855545,-0.02161871554255933,0.034583366877668394,-0.03455509580251296,0.06894057611797567,-0.02190261961346948,0.052227630770770424
320,0.017317135483091186,-0.00864950313228028,-0.012986850218227248,0.0089081150964272,-0.04328141839565652,-0.01734971803587652,-0.021649047074845242,0.035025051753355116,-0.034624277436432586,0.06956789692581519,-0.01981283748357,0.050067527603498974
321,0.017426086844619,-0.008690707360802966,-0.01298766014655172,0.004694859752850588,-0.043292525829146764,-0.017623542044221525,-0.021645673721378645,0.03066512727831062,-0.03463871566989198,0.06792045987745766,-0.013873463071423748,0.04435180844304895
322,0.01632549257873746,-0.008557812718911744,-0.01298489467635314,0.004345366518866756,-0.04328983574709285,-0.014121167576886489,-0.021646131771068746,0.030331163086188904,-0.03462977572574919,0.062165321771503475,-0.013284527850891866,0.043052052201671444
323,0.012870937550567224,-0.008827737878398158,-0.012991640827560685,0.004314652386222587,-0.043288470126325175,-0.008784984187362817,-0.021611647557749455,0.029904804659297905,-0.03463223651624486,0.06039774074303146,-0.00879569065900524,0.04347366973111083
324,0.010911296936900478,-0.004167655024921087,-0.012991960621568493,0.004268334322078661,-0.04329561089397089,-0.008553497368077098,-0.021889647212913928,0.024387337085715333,-0.03463373163200682,0.06058261102932775,-0.00832765686770023,0.038811826603976106
325,0.008293360773011174,-0.004557027975161692,-0.012850468153434979,0.004699176819323926,-0.04327775827163804,-0.00321550071193916,-0.02002830575995909,0.02165579893894954,-0.034625500696337234,0.060697923701679125,0.000764596768693305,0.03905514558617746
326,0.00871554970449491,-0.0033056893529936127,-0.014079667970152423,0.0019710091813341796,-0.0432778861647445,0.00010418588588537804,-0.01642102081710905,0.019455532184698657,-0.03464930458197502,0.055804687820861655,-0.0002496623867469967,0.03895008736574988
327,0.008663888854213384,0.0024050692988483234,-0.017752975266988106,-0.00043005330741939865,-0.043659146697858156,0.0014679609297349402,-0.020561502575178782,0.016536948031240103,-0.03462321170337168,0.045716565461188824,3.774867627244611e-05,0.038861370737837984
328,0.008667581215228187,0.004605180505859524,-0.017327284946345247,0.0004232214462304829,-0.0492091139929139,0.007338742774009996,-0.02144762700006169,0.021002701586437616,-0.034332448410466086,0.03708063117036065,0.00010964908850542664,0.039414609708631546
329,0.008292966253138459,0.004278512036616872,-0.016879191128591823,-0.004149527149604622,-0.05187272765598517,0.008924983453899882,-0.025754619271969467,0.021695389456693706,-0.02912905414107128,0.03324182014382618,-0.00043357425436860067,0.03570879696582891
330,0.0028678161979321776,0.0043355301762674735,-0.020935396307489598,-0.004340341569611776,-0.054400870979610015,0.008421771544791241,-0.025869957602507872,0.021667665053600516,-0.035470495752084684,0.024603824999680536,0.0038563456848660057,0.0344231234502337
331,-0.0004390955763000925,0.004328919684639938,-0.02170398365667209,-0.0036544280693141954,-0.055939184089361126,0.01294185018508272,-0.026751155524710534,0.021491104575573492,-0.04269401050491615,0.021505187378652063,0.004334991223501018,0.0346568600179724
332,0.0005256072023449915,0.004328726867223541,-0.021670048096093956,0.0004681980665063861,-0.06263437413334448,0.017410918280397085,-0.030446226187268815,0.022742176619431356,-0.036669756727420434,0.018162100681407452,0.004349552735961619,0.030143538602980618
333,-0.0029597614283268167,0.004329120117416411,-0.021454697901461768,-0.00012363607584706248,-0.07330422360305817,0.01818311248661854,-0.03213393912744208,0.02785276468125463,-0.05294046344755808,0.012998996480815395,0.004312785659706067,0.02944577877226514
334,-0.004581108478198677,0.004328972748196911,-0.022978336742165525,2.767451384525788e-05,-0.07369829437993512,0.02223808305636757,-0.035035720932838695,0.03366821268944521,-0.060673565142739874,0.0127096060782174,0.004376563017358758,0.025474842355444574
335,-0.0008870299945183862,0.004329001007875329,-0.026102634267534452,-5.148345785921615e-06,-0.07836250539771861,0.02105722708460822,-0.03456108304295367,0.03156109742864069,-0.06083808683107696,0.007499570399115423,0.004120839375658914,0.026094497101287327
336,0.013207458250983553,0.004329047590289725,-0.028104706248139884,6.967651495097041e-07,-0.07746424734672552,0.024711880800205657,-0.0346306484586312,0.030219532293546694,-0.07189543502425097,0.002355756057771459,0.005134095451835005,0.025951710601517967
337,0.014111891696524373,0.004328864868803397,-0.033368690262050485,-2.1308561829070917e-08,-0.07997928558567287,0.02588724544408151,-0.034639065155118935,0.03025867474900761,-0.08469254528076847,-0.0001350983375260503,-0.00243295454853502,0.025970567693926774
338,0.03046948125617866,0.004329254867698744,-0.03849046630811511,-2.2548728378089837e-08,-0.08194105226658807,0.02984789467371369,-0.03481893917024343,0.034978024058587,-0.08671907041214237,-0.0019376208895724217,-0.008531065137476281,0.025986985663889985
339,0.04279766007412843,0.00432983578321977,-0.03900141732999147,-1.092639845796096e-08,-0.08765675469577605,0.03468814465460249,-0.04099752427689704,0.03364155804198139,-0.08660550627816924,-0.011611329028776086,-0.00859340251566931,0.02601814559743084
340,0.052884230066922035,0.004317057573156729,-0.03929284344027032,1.246454226811954e-07,-0.09603448697922738,0.03519408662833979,-0.0495945631203502,0.029778074705713448,-0.0863811127961266,-0.013141618780324296,-0.009381582457310227,0.02531051758262032
341,0.0602552402682631,0.004407889088942528,-0.04366481450594138,-6.012813776451157e-07,-0.07881605153589066,0.039656149407638265,-0.054353736084835784,0.030846750032953143,-0.0899068111717201,-0.01309615844064547,-0.01312373548242063,0.021187373319190777
342,0.08696377807363927,0.003929458187134947,-0.04329912261786046,2.4033235851976554e-06,-0.05924872043565648,0.037343997194484085,-0.056576984421150625,0.027444511931862335,-0.09957530902190719,-0.01844848776236644,-0.014876094350406325,0.02176673273682199
343,0.09509486658808958,0.006898889560698192,-0.04269087617879568,-7.89007577917425e-06,-0.0465318003779149,0.03153989240948628,-0.05620522983910402,0.025758868606431302,-0.10550404940132319,-0.02075788964499704,-0.01738040650791503,0.02161777463045449
344,0.10984575116923535,0.009052277195838308,-0.04788746893414604,1.728485993529293e-05,-0.03903735611675035,0.030579881882809093,-0.056329831536537624,0.025997773107251324,-0.11739837867972228,-0.01676820317286205,-0.02006559218511322,0.02165004815242918
345,0.13775663445829964,0.008277925963857636,-0.0591565375928496,1.8368446081436866e-05,-0.015037031968215493,0.026409160470682376,-0.05632757712464305,0.025975195010501554,-0.12139512410760131,-0.017439762053533335,-0.025594420654374846,0.0216443842622829
346,0.17058175176603385,0.012964953333917869,-0.06083602756357171,-0.0005258473283808225,0.003677771133468032,0.026003920152461973,-0.06144976331420233,0.025973116407295785,-0.13266701218853807,-0.01729483233863744,-0.02599194298895043,0.021645022385140787
347,0.20173411267732072,0.013582179565306168,-0.06062915845746581,-0.004771963098589713,0.02102092574941101,0.02146497232214146,-0.06525785651127163,0.025969526780326557,-0.14160343207150466,-0.017313061521060425,-0.02636887097036032,0.02164452418253501
348,0.20967100900343832,0.023523713115577362,-0.06513349962446376,-0.004202768886419953,0.04077459403776129,0.020827419090650053,-0.06485124851670276,0.02600108552489296,-0.1620736131224877,-0.01732097611954551,-0.030763326190644764,0.021649495504308797
349,0.2549743218533766,0.02580509407322579,-0.06556611796883657,-0.00436705861877056,0.06042711557861141,0.016807728537554686,-0.06492455354067414,0.02585303212721966,-0.16861702530779613,-0.017404286031829704,-0.029925292810715147,0.021619450262986336
350,0.2773243331829114,0.028268697604891188,-0.07149608037800291,-0.004290276045637475,0.07572670910508948,0.01746467926405731,-0.0650512506539381,0.026429848757814445,-0.17844332171612148,-0.016444986961664614,-0.03211156966464971,0.021763588095662464
351,0.3232085333361571,0.03027757265116019,-0.07345486839265529,-0.004428206875109405,0.09990350440628924,0.01719000425919518,-0.06457577827674371,0.022336391955889944,-0.19304193322200405,-0.012496372935468191,-0.03799743433433919,0.021181278613437063
352,0.35796631261617884,0.033470825749638874,-0.07644873371752987,-0.004175652583272208,0.10856344102977113,0.01763758896721579,-0.06906384469038312,0.021582777429252915,-0.20957626346794564,-0.013217864005247057,-0.038723628574610945,0.025185136368859117
353,0.38763927091995043,0.038635774517481014,-0.07823172914737504,-0.008823689429968183,0.11204411960958185,0.01339015043106941,-0.06916440699857974,0.021573655710297148,-0.2258515929531873,-0.012505226935897389,-0.0429985441580468,0.02604741844560146
354,0.39451268997000427,0.04355508178702316,-0.0777051676433949,-0.008554281770390323,0.13883237786817168,0.00841184039688056,-0.06999868732019157,0.022410650951511728,-0.23414942495467148,-0.01642621379527159,-0.04321371840627449,0.025993084778078452
355,0.41228156498012614,0.047571870233361575,-0.08236939403307217,-0.008714763940701465,0.15170096978637132,0.0042200061131375316,-0.07404248361151984,0.026107124758209012,-0.2479496661498072,-0.01746506024523254,-0.043999680232829505,0.025805799305033333
356,0.4371600801266014,0.04997402394415023,-0.08204598789185984,-0.00853095365947068,0.1577328160469655,0.003112731083682414,-0.07348270602455187,0.02789175843539568,-0.25898961332398246,-0.017407392132766694,-0.0477553260802019,0.027196746624954648
357,0.44764363399599305,0.05731933134018832,-0.08318357341736549,-0.009158136020627851,0.1953990674763486,-7.899031732063204e-05,-0.07358385966297047,0.03036754854796708,-0.26410568702583664,-0.02195570736848036,-0.049472893782389504,0.030835827379132052
358,0.47971126485610716,0.05562002442626702,-0.08885840030472136,-0.005279093201467842,0.21845311896564143,-0.002463602486203886,-0.07371442575591564,0.033046416074205075,-0.26389458771847385,-0.02160654736711404,-0.05202917205002114,0.02987014319341933
359,0.5063569784589238,0.059479414645005724,-0.09120197193746692,-0.004509567733039788,0.21609358118806124,-0.004626053975993885,-0.07326144953134277,0.03860443897205613,-0.2650808896271489,-0.021260554643720078,-0.05462295595021728,0.03307326144021625
360,0.5160435562743192,0.0609063272714188,-0.09085000789379301,-5.485796572977236e-05,0.1935110392196688,-0.0042669738486558265,-0.07788310888797866,0.03896752506634958,-0.2698192933369854,-0.024221306667011333,-0.060312908053408505,0.038656945676950764
361,0.5098091961759944,0.06049181092723286,-0.09092418910055727,-4.445555640926732e-05,0.1891433268330805,-0.004345065270498732,-0.0782195982007107,0.03888007356977013,-0.27882909612160056,-0.025812115919561632,-0.06056330066725401,0.03891731873206978
362,0.4842427978119805,0.06976103406089261,-0.09090000258602109,-0.0002097194508056633,0.1772191762956524,-0.004695123073678288,-0.08267945921291493,0.03983962132655911,-0.298036238941586,-0.029639806692694552,-0.06522418388337403,0.04354655837000395
363,0.46004554561545463,0.06904170252453054,-0.09084073824225239,0.0016092910127861585,0.1674393006726458,-0.009057694827680901,-0.08221014512752767,0.0438509374883365,-0.3087659609977684,-0.030341693615811013,-0.06459099641091798,0.04323888659401569
364,0.427275508237025,0.06933722619686256,-0.09167494305922361,0.004305424614239027,0.14391094966647655,-0.008627280143612753,-0.08184764529748709,0.042739037186874856,-0.286526455318384,-0.030319025323074247,-0.0665133194612129,0.04294197450556285
365,0.4231566354574969,0.06921609996791588,-0.09570266740944884,0.007169786120338413,0.1427400000536448,-0.008248627086394728,-0.08508770507075888,0.04614931867608597,-0.2772815190417059,-0.030291122156561472,-0.06969381702543495,0.04565070653817152
366,0.3894362090355407,0.06939212443783581,-0.09511004779306637,0.008599743909822457,0.12600154616427825,-0.01154254141118568,-0.08679875933948243,0.04786166931260481,-0.2732171189563875,-0.030328694692583254,-0.06914088906947893,0.04736394157100796
367,0.36350432704037866,0.06886528850258165,-0.09529798869704288,0.012370074453732338,0.1032019226167667,-0.013194051074315132,-0.08655615326709197,0.04753197432610903,-0.25080723032536845,-0.030190421954962618,-0.06939289549737,0.05147540726004925
368,0.3458892233203727,0.07330818966292472,-0.09511714605809579,0.01734422923847668,0.0910296566110812,-0.012965599981967443,-0.08657878414407359,0.04754440463147975,-0.24150548102024924,-0.030761058331740282,-0.06903662676121981,0.04798607005553676
369,0.3063082977215295,0.07356395620190602,-0.09553421467928265,0.017786545165020554,0.06713036034467963,-0.012982529746025777,-0.08658179797885651,0.042971212289465495,-0.22235486703950913,-0.02695102126798479,-0.07366763205140432,0.04765905601631732
370,0.2779418426858977,0.07362090177287008,-0.09093589209431252,0.022116251803892675,0.048729768036665976,-0.01303094154899441,-0.0865790985019208,0.04340964134941931,-0.20690679813175122,-0.02580031460823577,-0.07411085198353845,0.047538887485581834
371,0.2413943180692004,0.07356380507613239,-0.0909803324073244,0.02148701089356371,0.04439058216425657,-0.012697554188580585,-0.08658224121543025,0.04324956305976972,-0.1873122418418809,-0.025941163282189733,-0.07840732361651273,0.047960599413843404
372,0.22839575621097813,0.07370159906133734,-0.09087566030599818,0.02179762029871397,0.03130785598232402,-0.014850808564064386,-0.08657125261550193,0.04333053389935994,-0.17676019471911264,-0.021312446577833544,-0.07779258891822244,0.045538013968864595
373,0.19849853521532518,0.07313487088847476,-0.09093662068855735,0.02118099221775963,0.007871028251888386,-0.017705687741198548,-0.08661313850186757,0.04316563723969336,-0.14227787928329064,-0.02204086731900631,-0.07794312930268218,0.04382514939324737
374,0.15088285069413643,0.07677451000288232,-0.09082059852702613,0.025298082596695505,0.001206466015218859,-0.0172401707751548,-0.08648173076785184,0.043655969381633346,-0.11199924191525196,-0.019789533473714916,-0.07794848650381768,0.03697136381938772
375,0.12097407916556459,0.07810506838690724,-0.09125083732829985,0.02602275840117577,-0.013901888076936398,-0.017332628903097336,-0.08673070818977398,0.03914413411266261,-0.09342722908017716,-0.017492734054005192,-0.07783555717368609,0.03433583515545599
376,0.11900234163760068,0.07788315446510374,-0.08783473979689345,0.02598503643651289,-0.01849850927551156,-0.017310388951131885,-0.0820863655974382,0.03900219416315046,-0.07623579198664833,-0.013877847101487243,-0.07799327458699964,0.034645018617529694
377,0.08553227468294726,0.08316003394184453,-0.08249219067698219,0.02597988310795427,-0.0271898737862674,-0.01722415170785995,-0.08230283330607922,0.03898283287148558,-0.05843745489441341,-0.016522264762599208,-0.07335372199118434,0.034665574609983825
378,0.06725285954727593,0.09166600927895323,-0.08226810212319816,0.02589347739904835,-0.02577753596705143,-0.01821657329069219,-0.0825273934766871,0.03866062228691675,-0.04160197937748747,-0.017233882325638064,-0.07370333914298964,0.034406959572294324
379,0.05365304027735236,0.09044578923528833,-0.08216983665675531,0.02638592511763134,-0.025927249134881432,-0.022005967279036514,-0.08029607739900055,0.04092194375217466,-0.03041344001050985,-0.021866465541990787,-0.07355960888808148,0.036146533473374896
380,0.034798840050345003,0.09267934041100376,-0.08271887930968219,0.023344513030500565,-0.02601541747849398,-0.022026778014890967,-0.07753533812666322,0.04367730664329019,-0.019709025974501648,-0.02839568385024116,-0.0736012376335161,0.03939328255204481
381,0.012009649492417635,0.09855841713269693,-0.07917027052302497,0.021378796641002222,-0.02131548170552707,-0.018569018589216738,-0.0780234607304816,0.04318208398842931,-0.0031426618087523547,-0.04017117224525915,-0.07359197254174217,0.03887107464564527
382,0.004521982947429198,0.09929135408200972,-0.07027518137946889,0.021697178996160218,-0.022432659652822318,-0.017879328921691483,-0.07783034608097593,0.04339963604154654,-0.002604500465693908,-0.0394777820512568,-0.07359128360183886,0.03897415598039824
383,-0.005018283000017592,0.10363150370328447,-0.06949430674012416,0.021634626143708365,-0.017054752132800725,-0.009354799764874109,-0.077967117028883,0.04323527461628412,0.011566847416900118,-0.051207265996088276,-0.07359733529159004,0.038963765040363633
384,-0.013689153990081504,0.1039737467948072,-0.06590579571699393,0.021351105390436897,-0.007552912318894055,-0.0040003485025115835,-0.07333939053785411,0.04757263759689995,0.021125398530751578,-0.06036339312603713,-0.07360058827546354,0.03896842528691627
385,-0.0115510985522832,0.1086097839968401,-0.060915928686410804,0.01617499516165615,-0.007089609670384127,0.010199716672968812,-0.07370875651138105,0.042097849041167756,0.021399980534392102,-0.06035936026221416,-0.07344217968817178,0.038810322499713
386,-0.008249160643383026,0.10794503017920681,-0.05620514159343269,0.011371441333736567,0.0029062591438480437,0.013195276093414728,-0.07353445297164618,0.037029951657218396,0.02558347157297011,-0.06491107799686623,-0.07476741271306668,0.040134949819864346
387,-0.00875130441042288,0.10904449434204187,-0.05561207499588042,0.00655693439608898,0.004237899720995903,0.012408370907413518,-0.07371922418521962,0.03471593544216708,0.03057605168725846,-0.07071528369121954,-0.0783818580811992,0.04375184165578455
388,-0.008639556529127856,0.10322668385989436,-0.05178910925499648,0.0012107729495421556,0.008701160986444603,0.016969710191865064,-0.07312284208648401,0.031846732630395634,0.03475315410677592,-0.08327187440731644,-0.07781664262010948,0.04317588651949108
389,-0.008662297632488736,0.09741102844837278,-0.05003419188564915,-0.00017037534621280588,0.008569906611758734,0.028985008467748482,-0.0770692711636683,0.030102658621779653,0.03581090326051309,-0.08312831868146867,-0.0779420483875673,0.043341785801389594
390,-0.008655932401670756,0.0807850845633802,-0.047671872412262103,1.8248524365464683e-05,0.008674691974993305,0.029276063520316597,-0.07799250343176597,0.030267014954665068,0.039440107551321796,-0.08941904967221401,-0.07791968225920415,0.04319941647765596
391,-0.008638686656058985,0.06548404138023002,-0.04446820643455754,7.958359232981928e-07,0.008747691772853368,0.04712798191740384,-0.07790627031234662,0.0302289936357807,0.03885467524679612,-0.09090733217363638,-0.0779217646308265,0.04337536441639292
392,-0.008852406357337944,0.04122190381213335,-0.04313499289721309,5.827470837939986e-06,0.008209673133622161,0.05188054791804928,-0.07845452292180603,0.02558292664925731,0.038980396231897405,-0.09156872053916316,-0.07791616848255496,0.038709408486256064
393,-0.0073022844412335254,0.030485221473423967,-0.0433008681247335,-5.0921410577519624e-05,0.01163210730118658,0.06041784761660997,-0.08269798222874344,0.026574887121664833,0.0389585696020427,-0.08292580569678502,-0.07797936996953372,0.03930064639520295
394,-0.003768449520817158,0.01335466458064056,-0.04338223834544027,0.00027287850643617777,0.013153446685444775,0.08399074640006185,-0.08212434471004776,0.022749405844766455,0.038961056206471834,-0.07775869688737465,-0.07758207290118292,0.037347943593463724
395,-0.004896120410305304,-0.022993554579913998,-0.042430400617642486,-0.0019259714870455149,0.013021254953326154,0.09548351255713776,-0.08228914825003,0.014426595272398191,0.038961305588267804,-0.07258521872241762,-0.08007408926241036,0.034671814626264535
396,-0.0010051686566118576,-0.029645349551122187,-0.03849578914467665,-0.0078271361794609,0.013119636785393001,0.10423505143230138,-0.08221248262314473,0.010243351751950987,0.03895972081044691,-0.05973333072978932,-0.08260397924368194,0.031760630932332244
397,0.00010156674539703683,-0.0538132725276446,-0.03907841024897132,-0.008394253474984466,0.017662685675282695,0.12318365948257864,-0.08234920072905118,0.004830130030721471,0.03896815054883521,-0.04253854028371395,-0.08216319514596535,0.030508452194699588
398,7.878490339326442e-06,-0.0840189991561354,-0.03893586291772376,-0.012838254417734493,0.017194486721244993,0.15784775661911019,-0.08210487332772261,0.00432118824676897,0.038928728733129844,-0.0364030807161175,-0.08232030978526701,0.02626645705916214
399,0.00036108984908378075,-0.11340064207114635,-0.03896541542736856,-0.013157028759207061,0.017349244134145694,0.17367221056817111,-0.08675328558882527,0.004479656722405673,0.039084455549472805,-0.031407300734549816,-0.08233687058608394,0.025910457583432994
400,0.004744532117198154,-0.1409523391590567,-0.03896062466730547,-0.0177210296726671,0.017308306237593506,0.20374663681403798,-0.08646662396042633,0.009764967267578927,0.038589544666088875,-0.027113268080524177,-0.08690875500596304,0.02130103465702517
401,0.004203432316693855,-0.14970724720944165,-0.03896107655299757,-0.01718436007125094,0.017317565987741375,0.23183853231271148,-0.08669239167565555,0.013300541827091008,0.04310088368643365,-0.013389404985804581,-0.08646023221596341,0.021698740262156072
402,0.004360332890101638,-0.18189022641920094,-0.038958398540643764,-0.017345180666855475,0.017315663124316302,0.25515275838897233,-0.08617817049450194,0.013008088718489932,0.04324346600692174,0.0006232831862755827,-0.0866134423853253,0.022007528835130002
403,0.00432290615364642,-0.21136571815024566,-0.0389814311622976,-0.017332066616119336,0.017316209154558004,0.2691795452616941,-0.08913468779064458,0.012549198034550294,0.04331744962227237,0.007051535656763194,-0.08657120360966525,0.019143442778813382
404,0.004328038121726131,-0.23534518235762478,-0.03884956065054088,-0.01723384080595288,0.01731721344066058,0.2812130041816303,-0.09147211640656838,0.016231495063825575,0.0432811717379895,0.01917813692896311,-0.0865861011274713,0.01714698124028292
405,0.004333892777496251,-0.24868473594268742,-0.03946581841651177,-0.017533376858169112,0.017302794750978623,0.29705633913648993,-0.08738119484145898,0.017514546456406366,0.043292187183918335,0.01456404824106101,-0.08656702884699612,0.017020655871312938
406,0.004330923256926841,-0.2802333938370221,-0.035774523502131214,-0.013073431158976911,0.017398393595773193,0.30289063850713777,-0.08226382417490011,0.017278098906322696,0.04329018861668628,0.03255738153135504,-0.08659441199650084,0.021519060512649707
407,0.004209000692623969,-0.2998531541627457,-0.03511473165401709,-0.008569010153689513,0.01690951756175257,0.31328182222578294,-0.08163235861627913,0.022099821009153003,0.04328794383047025,0.03308038847468564,-0.08109457157731648,0.02151836039515961
408,0.005333592774433427,-0.3069767585707325,-0.026673721374500945,-0.007825209974987287,0.019918214599258063,0.3303374692685329,-0.07192490870752194,0.02788719488637345,0.04329514763508459,0.030021747441939174,-0.0687786834211257,0.022401229132638104
409,0.009131308411086324,-0.3238651557036987,-0.021553929493364536,-0.0038373334017367334,0.02202299763060689,0.33951928795909975,-0.057267948163964466,0.036987176694602455,0.043292786785238506,0.030286016853600137,-0.06534496577819182,0.027223189959903603
410,0.008512676723509555,-0.32028702373416623,-0.015254155866950564,-0.004452828735587426,0.02129858659563178,0.35017057111230515,-0.036364262925758076,0.039291844092260365,0.04315970812937396,0.030271321388285054,-0.05393078557276862,0.034807949430689905
411,0.008805926461956222,-0.29842401049116896,-0.0021647042444349557,-0.00429497177011134,0.0259160016134047,0.3449728487624964,-0.018629691849172406,0.03848682701326557,0.0443738411411755,0.030670626189548956,-0.043968422411972644,0.03984034669294874
412,0.00825731706998336,-0.27296991884959454,0.0023516400897511656,-0.004360857515983508,0.02591000698883252,0.3234062242182749,-0.009095075518404876,0.04231856256513408,0.048082692156610686,0.027991191549449887,-0.03301317297907637,0.03802466204805161
413,0.012691214876100905,-0.2517303747719964,0.018904799793625138,-0.004269870260208872,0.026002827134734112,0.2955632975000349,-0.0016540838485326875,0.043642847976271645,0.047510029052222784,0.027850708052258154,-0.011421832777455593,0.046919539171956744
414,0.012963206360200652,-0.23758536131833588,0.030451443550477412,-0.004250667000085269,0.025965703419450675,0.2897605082422351,0.017468946155107412,0.038938902684179016,0.047642344979363725,0.010486691438626416,0.01334292301223956,0.04758332384850991
415,0.013010809425535957,-0.2152435509502277,0.02935108876742335,0.000435639178567571,0.025973998042626772,0.26519890698895326,0.019665021840941314,0.03787298514389339,0.0476096793412631,0.0009463844704331956,0.02215019969241907,0.047766118307605285
416,0.012977053550322968,-0.20655634168039744,0.04282828864438152,-0.0010189807345642608,0.025982576154726923,0.2546262958174665,0.041938431872184455,0.029946243808445162,0.04762680545813391,-0.012697957528177506,0.029140985519512715,0.046753718303685306
417,0.012996780134945854,-0.1764202212168787,0.0479402378641972,-0.006234142461666844,0.025943910745068344,0.24350025467428155,0.04626734690699798,0.026934345909685412,0.04768849547293497,-0.013857355258146138,0.043575369977633234,0.04109319783602871
418,0.012953819934052325,-0.16507644132356453,0.0522076819501574,-0.010935082188906733,0.02604452785845025,0.21713882266180645,0.05507610902476619,0.021255188705436922,0.04685581927955251,-0.032679788725566386,0.04981142437166137,0.038544555369878705
419,0.0131100727471186,-0.12421691444901875,0.052688033851161206,-0.016285111278851287,0.026003252451401372,0.1926918055464368,0.05834096694202517,0.01864923932114167,0.042489581383241444,-0.035136673653697194,0.05776330137413116,0.039466895442345294
420,0.012615501124308462,-0.1083215379446602,0.06025800245843389,-0.01749327132328932,0.03058980499553227,0.16919518795201025,0.07107265333757387,0.017395474903999127,0.04553713817427245,-0.030927807501099098,0.06738323360837403,0.03526882157895793
421,0.017105545185992888,-0.09204265225901004,0.06697163404365641,-0.017242029172566647,0.03025404152962608,0.1353300256315786,0.07834609627388983,0.013301083109493907,0.04794081035527312,-0.022410289518153076,0.08172995582841824,0.03457279008358695
422,0.017276807296114804,-0.06798010921618707,0.028879902559680006,-0.02227755113584047,0.02996944939307556,0.12058680184470753,0.05395607883858134,0.008436327239097067,0.04756436234560759,-0.021848072528209642,0.09178161015827965,0.03441831616212592
423,0.0173419027623254,-0.04439001523858312,-0.005376175470554205,-0.030823583948329982,0.03259247629907347,0.10187712938351996,0.022071977133404138,0.0024765750755618107,0.047624867185680736,-0.017976200943224177,0.10713158577867325,0.02912229104426447
424,0.017307248377437107,-0.013618998735203914,-0.04306149442119649,-0.031108844088149668,0.0349572163316037,0.0625620488788092,-0.011170930686150058,-0.0045854694428406765,0.04761943576287632,-0.012959436681186633,0.09853851165682685,0.025609031242392513
425,0.0173183781005712,0.007367012069477772,-0.09828899070386739,-0.037096888602493515,0.0345766395928694,0.04013843111571546,-0.07973716674757733,-0.007782909187554552,0.04761862022105361,-0.013179706165311677,0.07378492335200766,0.02616989055730307
426,0.017315465283391764,0.03376595635355993,-0.16360005528808777,-0.03932261894136712,0.0346412011658853,0.02957027307459776,-0.1352771765802272,-0.015928072767482246,0.047619201635116376,-0.011856587744847111,0.06439573134245784,0.02449035879108015
427,0.01731616602750203,0.040170770914231185,-0.20263762862638995,-0.03856015441821592,0.03464132890522299,0.016283676696143376,-0.1790409622556221,-0.020834548973341804,0.04761900805731718,-0.008471065086110646,0.01795430958971852,0.011556638957763826
428,0.017315875482886132,0.058266988396269245,-0.2346128555593914,-0.04259451325078983,0.03447928683927703,0.0018058076102515233,-0.23404764486809423,-0.021431214050534473,0.04761904529262204,-0.00686299105085412,-0.00992942598361539,0.004619886279873286
429,0.017316172725431407,0.0780599145427286,-0.28291533579465766,-0.04755239207921798,0.035793692762769266,-0.017536048541313323,-0.298087936487596,-0.025943649400977,0.04761908936667695,-0.0008931083048805032,-0.04797141620112368,-9.151919050537534e-05
430,0.017317357715155243,0.07766308305976714,-0.34422075985436357,-0.05207760809691478,0.03942985352465506,-0.027369460158371214,-0.3314893830028075,-0.026300180160433242,0.047618928808087255,-9.114624070775046e-05,-0.05905338205802314,-0.004468174055903796
431,0.017302070874480758,0.07803982229772821,-0.39054730302415325,-0.052594320429521245,0.0388205869795328,-0.035074383408245056,-0.3571514964985846,-0.030588602842830298,0.047619144097342254,0.0038946393262828567,-0.09613295520307559,-0.005044527509658647
432,0.017401404676492052,0.0777851380650713,-0.4297761319257772,-0.058065221302212804,0.03910481173337319,-0.03671612882439078,-0.39479923246853493,-0.031344034739725,0.04762076600895628,0.013646351403606177,-0.11526941116165829,-0.010962756162137809
433,0.016898441594383643,0.07841614521330552,-0.4867272269970183,-0.0626514351846972,0.038598147186313846,-0.05151204292901675,-0.4409050995798941,-0.03738741546688318,0.047603283277204096,0.02294969241926434,-0.13916361987700857,-0.012913273188704777
434,0.01997240200299401,0.07472425536686687,-0.5445098741401023,-0.0682002687249862,0.043124972169506594,-0.05654631114165751,-0.45826200751538654,-0.03886856888495002,0.04771103381507172,0.026222936610735895,-0.17141556345661427,-0.01566910661496267
435,0.021899951091254224,0.07378371290427023,-0.579890975575416,-0.06902377092632916,0.04326027069923006,-0.05984334711000645,-0.5000681324449622,-0.041969602617117435,0.047187310628308464,0.02601253454523982,-0.19820598173309845,-0.020810219903278037
436,0.021616224840134576,0.06943390559730761,-0.6513222080051498,-0.07326089987971102,0.04311919570486213,-0.06065553569485481,-0.5740523169862534,-0.04744870882974939,0.050484638660797554,0.02553288816716283,-0.22826221063892385,-0.02584503845071358
437,0.021642407528836335,0.06932381859121743,-0.6943346787117866,-0.07357729323685865,0.044682844356984094,-0.06062213237822268,-0.6239748990595664,-0.047689816753849756,0.05225617952145288,0.02924515338596996,-0.25874143967391594,-0.025923037778794553
438,0.021553701086507632,0.06917793222826063,-0.7681492207534352,-0.07346749145720492,0.0476321519863463,-0.060597017397728305,-0.6550877453215964,-0.052332816909721684,0.05172751485714943,0.03050098645458424,-0.3105298618796829,-0.026104702808648374
439,0.022519688501148483,0.06962209424695784,-0.8037682845635125,-0.0747619624522003,0.050256971602885475,-0.06061053621784167,-0.7559967576126053,-0.051530673652504626,0.056397628488360996,0.030286894029466237,-0.3474574624339324,-0.0252968679507198
440,0.02644021811113021,0.06708425246641317,-0.8366544269040953,-0.07810817331354163,0.05179007271641108,-0.06059719056588496,-0.8077911159357896,-0.053849554345649954,0.05618349873355858,0.03492334719064166,-0.39257759481065646,-0.030198825170509355
441,0.025857119896186546,0.06507505107885125,-0.8854766843741427,-0.07977365338574617,0.055715204428429387,-0.06063971558378281,-0.8167891398476111,-0.05623053624896739,0.056309619690528785,0.034343823101842835,-0.42722040347083506,-0.034894446486417444
442,0.025996950500335604,0.06151630836510179,-0.9653551910749206,-0.08571109975054343,0.05629761524878355,-0.06049233172970029,-0.8171570945802926,-0.059229706717593616,0.05626637659879451,0.03591176278058388,-0.49120342506071946,-0.03784361159223184
443,0.0259774921413677,0.06075638313128554,-0.9078088442754405,-0.08652549411765481,0.05629702932204342,-0.06087461718860589,-0.7965110964074282,-0.060937397474926776,0.05628790467365628,0.041657642769818204,-0.509983943810917,-0.03915731533679316
444,0.02595565243007339,0.0562447577920371,-0.8830967330938096,-0.08682391452163257,0.05625320835526241,-0.056249002840937444,-0.779316330255365,-0.06037496407884828,0.05624517715846825,0.04352564901678124,-0.5326775480242777,-0.0389939030384006
445,0.025969949042237032,0.056489726902393705,-0.8610181894741203,-0.0774010879204404,0.05637000810225211,-0.056357917080203365,-0.7727147158366113,-0.0646229185244286,0.056358239014917696,0.04325900363759814,-0.5474319158343064,-0.0434956803412826
446,0.02641017147119661,0.05518922703262058,-0.8155036439973218,-0.07255974614383431,0.05584678794913975,-0.05624527200323877,-0.7177588871766164,-0.048297912945912146,0.05625112449756622,0.04327979642302423,-0.5502573028791842,-0.04395110578575397
447,0.030795862644901372,0.051492930927527644,-0.7841659789175288,-0.059579119431486714,0.059046840376341045,-0.05628793772517475,-0.6766560358476073,-0.03910370814426294,0.060878602734878676,0.04324977557018523,-0.5248071901467216,-0.04992817722821655
448,0.029823684411117646,0.05205588302992369,-0.7394476092285348,-0.04051051924670256,0.06084764004525698,-0.05626622566110703,-0.6508945154133722,-0.018780360961937064,0.060491612115808516,0.04393313631327108,-0.5031817758772347,-0.05174620633718976
449,0.032558521164758235,0.05192663418487358,-0.6874679259412176,-0.029286616002295207,0.06055841348482587,-0.05631042062251681,-0.6011578123705674,0.004959107628721122,0.060639538228705575,0.04807496197926989,-0.4831815082748,-0.05509238224321439
450,0.03508078351831545,0.05195133150759416,-0.6516453940065458,0.0024669726528709504,0.06060093972889819,-0.05617889575766876,-0.5697757951140914,0.012902946168518024,0.06059799331311148,0.047496763021185495,-0.4502979339697545,-0.055986308410226504
451,0.034177559559220444,0.05194781157001586,-0.6137218404644952,0.00826888348367901,0.0610603486071483,-0.05642339580214654,-0.5385319310775231,0.05781195434312303,0.06060768768811977,0.04764669282280074,-0.44177329967009066,-0.05697034915779302
452,0.0386550975381699,0.05194798785246176,-0.5640333918094954,0.029990891199996636,0.0653471415544529,-0.0517708861022785,-0.49393534765928915,0.0644604015792636,0.060605805739922,0.047613858376025456,-0.42204558150334215,-0.03359591866201248
453,0.03893841230481242,0.05194808768412747,-0.483048419264287,0.0543410621593429,0.06490777171648751,-0.05205035174677081,-0.4606280251749352,0.1386930486744275,0.060606081076179576,0.04761976026740204,-0.39752849691890646,-0.021915076154964245
454,0.039024413260757666,0.05194804834774008,-0.43070369337884407,0.07142401288781818,0.06452027120180247,-0.051914848764986365,-0.44177406118915213,0.15518830348870752,0.060606064908096675,0.0476190222387354,-0.390790630994086,0.0075789081584580606
455,0.03866384997383958,0.051948013492968376,-0.35443687037751426,0.09627083140596009,0.06785512300732872,-0.0519566606378942,-0.4218554847169355,0.2010504827495799,0.0606060579545506,0.04761902345016337,-0.36829092643112543,0.0357064614563986
456,0.04080290407149749,0.05194822357845865,-0.3543347910353288,0.1310907459048935,0.06946791105237897,-0.05194616941086012,-0.38851603517835737,0.25510345795987777,0.06060606132910452,0.04761905859895686,-0.3458124380554111,0.06480215304148912
457,0.04321252045764538,0.05194746068428787,-0.3163802298619554,0.13824693429584808,0.06924237176379325,-0.051948389478706586,-0.36000642088250867,0.29892817756107115,0.060606061159672195,0.04761904424875729,-0.34141869893190047,0.07737554310802691
458,0.046361386216454706,0.051949488590254195,-0.24099170842669274,0.15947093085017378,0.06925994028252157,-0.051948008638611674,-0.31590778713171247,0.3542138116105236,0.06060605740084355,0.04761904866838468,-0.2851477249878381,0.14404694213024116
459,0.04741935802982786,0.051948264471235094,-0.1961527785978133,0.18010173495361417,0.06930845386057458,-0.051948051364192165,-0.29220328836816184,0.3992159266453166,0.060606071756931564,0.04761904655628318,-0.24233741737773204,0.19068960374434052
460,0.05174158529033209,0.05191610311122268,-0.19441816266813625,0.19950705712974912,0.0689669550152118,-0.05194809821495839,-0.24504570700108821,0.4517692737887529,0.06060603384305864,0.04761905053588697,-0.2112148668269136,0.24825233992913867
461,0.05203043011463549,0.05219938486953301,-0.1552953349586718,0.21003759551663048,0.0711466140951904,-0.051947703494528305,-0.20735416291918016,0.4868141299611061,0.0606060525208834,0.047619041566470774,-0.17151733708815095,0.27038242351437325
462,0.05729506795438848,0.050280733349873805,-0.12243056426092512,0.22973166516438226,0.07353997443128021,-0.051949967220546386,-0.19536516517974023,0.5193341681650163,0.06060669184258739,0.04761903819963252,-0.1608064059293804,0.3608646398148502
463,0.06098680970204515,0.04719540983367279,-0.10715624425089995,0.25400159345701817,0.07659209910392148,-0.05193938371840755,-0.14734169905062378,0.5807745047225126,0.06060117844397407,0.047619250625861975,-0.13846485217898302,0.37872582520854897
464,0.060225301235173834,0.047735323545671025,-0.0781932751691891,0.2747244845646188,0.07810322023788678,-0.05198112116220957,-0.14122709972890699,0.6178374073240762,0.06063270062514591,0.04761761322074086,-0.10915660923797996,0.46056426468724165
465,0.06268219156893687,0.04750607168159351,-0.06030451118853668,0.3030881078378128,0.07791124803563398,-0.051848038387128814,-0.1053146264543722,0.6658966109330988,0.06048669131423447,0.04762657957291688,-0.09784703285519124,0.4998277211740693
466,0.0683360134864354,0.04778033671888008,-0.036994153337717835,0.3163017070273812,0.07793467875376471,-0.05210831331256474,-0.08281701899386804,0.702543699085165,0.06105440143947833,0.04758609814859259,-0.07104482098471934,0.49957225270005085
467,0.06944761804763076,0.04312660257628398,-0.02254837714733773,0.31621300436372474,0.07773202742043873,-0.047455360608251805,-0.08254619664689002,0.7548616982204847,0.0569528495975874,0.04774034672792853,-0.05152666434084718,0.5646808308930751
468,0.06916895613334768,0.04339013364269556,-0.016103039038382595,0.30132040533,0.07929355624099531,-0.04771952829133082,-0.0683076855628323,0.8085804945457427,0.05620309254971136,0.047274030451143964,-0.05241494683117089,0.5803795610490692
469,0.07403709645824468,0.043258599204113964,-0.005552942825383996,0.27208260302366566,0.08231129871027523,-0.047585949571692515,-0.059236088561736754,0.8349796804468411,0.05600063949386292,0.05182342456682767,-0.05014611536126191,0.6422501036110838
470,0.07811991156522312,0.04329068593434386,-4.33025560747011e-05,0.2681355443532432,0.0846774387164067,-0.04762770422091213,-0.0471623355848031,0.80061282704191,0.0515591347540606,0.05189339852206687,-0.03647821127622605,0.6742513836531326
471,0.07851680948599361,0.04332157240439346,0.0002489618207974047,0.23302522819533134,0.0871050761525862,-0.04761713930706144,-0.03769613811117344,0.7467163160530829,0.05208703470444901,0.0519619267934272,-0.029227773998673955,0.7203478753502274
472,0.08680926935775284,0.04317439197152947,0.0047561007235403996,0.16623741292937202,0.08589496668523833,-0.04761939224148921,-0.03971332865922399,0.7053848871577132,0.05183548101158803,0.05202758984572743,-0.031017918949917275,0.7826620478074314
473,0.09105426662398651,0.043579295347951345,0.004111432340107991,0.15023070561233404,0.09507382107044063,-0.04761900606458965,-0.03550088817340881,0.6545678001367056,0.05228606819418826,0.05152335276222546,-0.026114302180310515,0.8003232364839339
474,0.0941707255845012,0.03896765871433453,0.004786491159691745,0.0996418669261397,0.09511616581293444,-0.0476190476205003,-0.03481274928523847,0.5757345809885241,0.04897128048248346,0.05470905957605275,-0.030294721760853224,0.7490593886574987
