,I,aVR,V1,V4,II,aVL,V2,V5,III,aVF,V3,V6
0,0.006355932203389831,-0.04025423728813559,0.0,-0.048728813559322036,-0.01059322033898305,-0.00847457627118644,0.02754237288135593,-0.0614406779661017,-0.00847457627118644,-0.0211864406779661,-0.00847457627118644,-0.05296610169491525
1,0.004637033653925024,-0.05227549957038975,-0.0002001823796337049,-0.04285676113095813,-0.013878734555823854,-0.052202049420984734,0.029335415501882626,-0.05925987975887369,-0.00914402161574937,-0.03514957915486414,-0.008477156215871003,-0.05514368101042364
2,0.00894186036582096,-0.0874779135067246,0.0010244034724236372,-0.04622270904627181,-0.021293899683511152,-0.07094133863381566,0.024415623375749953,-0.05936391103740307,-0.019654476841175997,0.05268717889290407,-0.008461874087236053,-0.05506015778821636
3,0.007735661697185858,-0.13610196341616942,0.003335168461922192,-0.041478096329897685,-0.024483078993841684,-0.15019783015108337,0.019515605943319966,-0.0592199707375671,-0.034986431026057065,0.4544194277146919,-0.008544192272804901,-0.05509186420383173
4,0.012243091131988165,-0.16459435633691608,-0.0002581617793702973,-0.04447552904485189,-0.03870240075467384,-0.2169692227971737,0.01648641663803764,-0.05976965056431808,-0.04412776096892244,0.5602026566301558,-0.008144807132453184,-0.05508440667707412
5,0.017252185309045043,-0.23045340137441836,-0.0018789721796615565,-0.046833051240947415,-0.0452597303361129,-0.2628281334613392,0.017483095231580082,-0.05659070256481069,-0.054646095474075285,0.6132389086344485,-0.010689440000077216,-0.05507876020118528
6,0.01983703846296442,-0.25563876161315513,-0.007106509543547574,-0.046987258507128433,-0.04695100372469991,-0.3256758065525679,0.013874892148595556,-0.055290612426197906,-0.05971936484536618,0.6157444769750258,-0.015623430481768126,-0.05510723564870318
7,0.02091787354316527,-0.2874232410640865,-0.011756914792282719,-0.04304596702652214,-0.048319982743587835,-0.4008971027905737,0.012543327304262249,-0.05134875154700312,-0.06267906743181188,0.6500562238566198,-0.020754639902911737,-0.055022529341609595
8,0.025271963645284362,-0.3297743846615781,-0.01631916900947734,-0.04232320415140845,-0.0707727162642651,-0.42826574183379795,0.009403605729770935,-0.05093025096617805,-0.06387802839724695,0.7889925591187316,-0.021103632040701918,-0.05515660287055852
9,0.02530347012901462,-0.398849671033388,-0.021186173528289262,-0.04239667193352556,-0.07649161806351405,-0.5324037376650979,-0.008933367171238608,-0.04647784640446827,-0.03417411221719832,0.8934954656132735,-0.025672247140999752,-0.0504123356263545
10,0.04340043411640029,-0.44856877787145205,-0.022059135088131423,-0.04183686488606163,-0.0902518074831514,-0.6346877809117651,-0.012713286043128678,-0.04609395967445379,-0.022234103067645325,1.0114858900661665,-0.030438546769626824,-0.04635376856271859
11,0.04070402173741825,-0.47706331646796635,-0.03490526180252216,-0.03794150115192798,-0.09423658427334983,-0.6689052917570709,-0.012712302386308664,-0.04158484882196341,-0.12398917474600528,1.1533530169195771,-0.03445335947957996,-0.04661870887018386
12,0.03187775210864171,-0.5176464113184709,-0.03446083302322287,-0.03678778893344669,-0.09796604173510616,-0.671772777953,-0.012706642538503834,-0.044390575238565946,-0.11598347564881557,1.0662211734521077,-0.03246131095437044,-0.046979957821254636
13,0.029619703041007295,-0.5443398776499985,-0.04042826535095488,-0.03312816839209296,-0.09701012507234787,-0.6211980515523904,-0.012736357173827484,-0.04649552469486634,-0.12197551072818244,0.997126119771653,-0.02735657959103949,-0.04418206200665166
14,0.0281874601516065,-0.5481250677341879,-0.04267760102057458,-0.03623522354252884,-0.09977906200364749,-0.5895212433557924,-0.012613505821218219,-0.04962158159419859,-0.12012280073673981,0.9349098204222701,-0.022892915053755236,-0.042111549461340166
15,0.019864449360168776,-0.5361184131784544,-0.04219393826016339,-0.041570202620831186,-0.10469390830288043,-0.5686073833286589,-0.013053599252284687,-0.050641650443651404,-0.11842307495142453,0.8744592584897771,-0.0174808712982433,-0.04232251653110362
16,0.013228826362957975,-0.5155565583834579,-0.04278622354290497,-0.04254140341651871,-0.10970748062972989,-0.5161797945340185,-0.009221278971301893,-0.054841555012640195,-0.11866648475111898,0.8243267112761697,-0.01733390050938887,-0.04255139076883693
17,0.012629495191458236,-0.5016063076665764,-0.03858851286288653,-0.04228614310052512,-0.11020583169858253,-0.4788841855821793,-0.004421426823755592,-0.055148590319790074,-0.11864417335505256,0.7457261430558632,-0.008582445513200351,-0.03803109427220097
18,0.012732185740789015,-0.4695842137462761,-0.038104786649169366,-0.04695110849105342,-0.11019179969507965,-0.3685372678271764,0.00014351942190996792,-0.05951956105217666,-0.11867620895174967,0.7374499914473673,-0.004200938996435029,-0.038222782413821245
19,0.0129695071659741,-0.43088122199884293,-0.03795118075025597,-0.05176892416473541,-0.10999831595389706,-0.30226884866396914,-9.258389886265171e-05,-0.06018806770912131,-0.11840159034445474,0.8116428658674123,-0.003657064061734529,-0.03809957960549186
20,0.017319968010705532,-0.41154012384732835,-0.03270115408356674,-0.05544194650001155,-0.11134250291530043,-0.2291864853054172,0.00012344134961921044,-0.06405196447420276,-0.12019468626818788,1.0218434993336598,0.0015637271034973485,-0.03816999413917304
21,0.01676051385514999,-0.34635191289314954,-0.0304885112164417,-0.054977986986570714,-0.11446530821728693,-0.13890754837386732,-0.0004985142847378465,-0.063434683024067,-0.12330694290862887,1.0826577918403695,0.006029603520853097,-0.03801882138270177
22,0.017333549248103017,-0.2980823806278177,-0.03446139948735774,-0.055148794071349386,-0.11664879290879504,-0.057456751582493325,0.0028009612392609243,-0.06359565583273123,-0.12278026368918844,1.0747887068620579,0.011348382315031361,-0.038583324993988366
23,0.014794215095774827,-0.21843487833701214,-0.034287790554213875,-0.054923600635469194,-0.11845220291613026,0.07863354019810713,0.0014690045441316274,-0.06352090417154736,-0.12293022763996025,1.0766999554657286,0.012609683140123331,-0.03478579121830594
24,0.012042396139423015,-0.10263445435498342,-0.04947130753657445,-0.05559663529273452,-0.12220971658027231,0.15576240747843711,0.0004476131009440057,-0.06364604705383708,-0.12279676520820476,1.0757993563496957,0.01587776357130168,-0.03373471804682444
25,0.015652088007544418,-0.034840309591786994,-0.05813442988491818,-0.050953301976457664,-0.11946752791742704,0.25466881041873823,-0.007494230807427766,-0.06350769526711852,-0.12293079192159388,1.0804810712547275,0.021013803543172074,-0.03389169556708719
26,0.02079874482988601,0.010691832273416246,-0.07018252448099782,-0.05507791249453794,-0.11448052115021418,0.299659606025333,-0.012703442015041515,-0.06787775201066892,-0.1185058954307418,1.0760841871834446,0.021159667386286662,-0.029329742743636256
27,0.02122789906770122,0.10327999965831205,-0.08011231162206708,-0.055289432220566676,-0.10949512864482931,0.35693573883908475,-0.0173471870749282,-0.06907253128219845,-0.11791780789871963,1.0764358196021677,0.021335021048113575,-0.03041206804439587
28,0.021356280131454193,0.1532082572312994,-0.093878833480193,-0.06036881860045863,-0.10044046575936386,0.43750958672695633,-0.023035703084205335,-0.0785177298843759,-0.11417172112968324,1.0759140216507168,0.02018298635104488,-0.035855877327026525
29,0.026345088141171622,0.23980021496652043,-0.09765249257815581,-0.06520188519845943,-0.09629856364243358,0.47760760218679943,-0.031151391008463356,-0.08081272968723738,-0.11291472956446397,1.0782064476470168,0.016390810080654693,-0.038014007793758645
30,0.030225445349280396,0.2874480595270772,-0.10566723677639976,-0.06827142396659151,-0.0909571069387796,0.5012164924025191,-0.038145557180630035,-0.08001364153508254,-0.10769612022059705,1.079226433201522,0.01753010003248463,-0.040818708866370124
31,0.028064000821485125,0.3236165283666784,-0.11425941471829192,-0.06722880332515395,-0.08903745506737601,0.49461977703860505,-0.042273001130868466,-0.08359376658034463,-0.10267472766711898,1.0724491677534094,0.014036167225977938,-0.04220322103670075
32,0.0245148788457537,0.3409480167698492,-0.12257193230882708,-0.07098133010661582,-0.08644318447151404,0.47607625224471384,-0.04797382458646154,-0.08493880475585477,-0.10148450746691527,1.0699210068483056,0.013011695660055118,-0.04606859785664737
33,0.028541210932023317,0.34997685774925225,-0.13460766059716356,-0.07183588525238817,-0.0815044437905271,0.45269021372944873,-0.05449023295722169,-0.08467792688391766,-0.10183644767589735,1.0169010664287799,0.008677126395809975,-0.04661730056885363
34,0.027148221961703748,0.33361200814573055,-0.14202395163590256,-0.07602420499291396,-0.07648287458915923,0.43742614584435346,-0.05895973869771931,-0.0845226362876311,-0.09723766071579752,1.0127206230061687,0.012622713385755581,-0.04638858863073168
35,0.021375204441293007,0.3190458412965762,-0.14435386137898212,-0.07627249006249252,-0.07625610369210689,0.4284851586725467,-0.06370678200390732,-0.08092588015333882,-0.09189412513428474,1.0080556938050855,0.0126915943503207,-0.04181714136169262
36,0.02141827310221023,0.2959711588224209,-0.14404381754094295,-0.07579544647370444,-0.07172970431496312,0.3870978994220106,-0.06842768207004374,-0.08416490983209082,-0.08307721231120056,1.0082028360184532,0.012229439444105704,-0.04372350641985172
37,0.012457571718580245,0.2886090089866297,-0.14405084094828552,-0.07160329348287134,-0.07236118308112191,0.36263077455676695,-0.07322106933448862,-0.07999981567933405,-0.07875486110165501,1.0015292864963807,0.006578909144101179,-0.047137943878695826
38,0.012449045961124507,0.27447081807321166,-0.14420756562681075,-0.07215705227804622,-0.0706188630258895,0.3355960316250373,-0.07755755448426074,-0.08021461195591915,-0.07452545131663976,1.0142914454404202,0.0047808679557008425,-0.04603186783417256
39,0.007085554003721208,0.2341672046728523,-0.14309608586610176,-0.07201068635230132,-0.06736498867433634,0.330427520789009,-0.08463095089818443,-0.08335008827161489,-0.06600547730351475,0.944347838121862,-0.000875398706900554,-0.04976956659567165
40,0.002938574213822742,0.2320204656903295,-0.13902053272952508,-0.07200819554039783,-0.06789489879055145,0.29969377051100693,-0.0922546646768719,-0.08495682289452867,-0.06331749875502465,1.1036500966115317,-0.0034923454172643147,-0.050655920085007015
41,-0.003986899928131516,0.2062215216999365,-0.14205796722418734,-0.07214631191608084,-0.06777912756319567,0.26522159788844873,-0.09346469658744705,-0.08472094261256555,-0.060315187019994575,-0.1826444299513718,-0.014685721039286247,-0.054838784423197416
42,-0.012344998461854743,0.18802825802922377,-0.14436429362330824,-0.07172004030927998,-0.06779303456960284,0.24669443211733802,-0.09288512573106839,-0.08474525942252074,-0.04648574686179467,-0.7444492400987182,-0.017126340855490328,-0.05505334129857018
43,-0.010778705461793606,0.17382927654552585,-0.14412388029861106,-0.07614701730394288,-0.06780901679424825,0.21096191180542329,-0.09733728012226633,-0.08474513675128008,-0.03742200401218499,-0.4819610659736686,-0.01689029885098205,-0.05510986629888979
44,-0.0306516599425558,0.1453414975948112,-0.14372758620881235,-0.07620961307234805,-0.06782488601429969,0.19491358425157204,-0.09741640172231021,-0.08476111281323764,-0.03312653396079969,-0.2911945629136404,-0.012398762867745407,-0.05507448957474123
45,-0.03808871379819744,0.13052861782758907,-0.14813729426477806,-0.07646218410866767,-0.0672986882587917,0.18801602102626228,-0.09743649922120243,-0.08465761077945277,-0.02660021920615497,-0.40886279771863954,-0.012830917489786216,-0.05509428819222995
46,-0.04262986586837819,0.10236943019242112,-0.14834966965294344,-0.07511124655741762,-0.06308510328880011,0.15737496443692833,-0.09773791282200653,-0.08515722052084558,-0.01877992918495898,-0.368139324226026,-0.012676572919743067,-0.05505273627981005
47,-0.04681244485218857,0.08598887151641343,-0.1472275723395972,-0.07155530221560723,-0.06395535305018944,0.14780587707266937,-0.09569445858407785,-0.08212723361136937,-0.014118388747645101,-0.32729640642390595,-0.012722944418204462,-0.055207044226000264
48,-0.046654682699723636,0.07934643206080211,-0.1394099905501444,-0.07226284610528924,-0.06176468697073025,0.1291617473485315,-0.09304254280581994,-0.08014615153851966,-0.012474939041926914,-0.3072568844315518,-0.012700524406302826,-0.05468399296738912
49,-0.04575490557785713,0.07006990800970417,-0.13736008808725594,-0.07154707432589279,-0.056674621886384474,0.11543614449495923,-0.09126073759793318,-0.08084927509459418,-0.012801985240308227,-0.29259079242301156,-0.012745001560551899,-0.05895652832598934
50,-0.03814728577513072,0.06033155063323882,-0.12868619139689327,-0.07545594249122771,-0.05200774112557987,0.10409034662421211,-0.0823022626059349,-0.07637624648304102,-0.012646956092515512,-0.27036169532969373,-0.012622157566356658,-0.059318856180096954
51,-0.031180688972207493,0.054643631015360405,-0.12485623656725241,-0.07629837557768228,-0.04734513386241549,0.09502513649185315,-0.07666984189409388,-0.07639383457154234,-0.017419137897466064,-0.233001447144002,-0.012815209300034753,-0.05931279496331734
52,-0.02623083487834371,0.03593164780164457,-0.11943492175926393,-0.07628378089710891,-0.042496084369130584,0.0853823444508456,-0.07205822914517132,-0.07549789079887599,-0.021260815726132105,-0.22865573462063843,-0.0083541287418823,-0.059537378161073934
53,-0.0257934810875945,0.033738199384334276,-0.11879397306991113,-0.0718593898444931,-0.04251822661230079,0.07591413065920835,-0.06765042450379206,-0.07180447949098948,-0.022441672963306784,-0.21612770454999455,-0.007898142327503493,-0.057869201075076544
54,-0.017796595413425837,0.033874737748678614,-0.1147975330228607,-0.0714920396962298,-0.04106887497277635,0.05747012936297882,-0.06749179002612045,-0.07074562144542426,-0.02541936460476721,-0.20093814575049646,-0.0037243465422696757,-0.05467576226446825
55,-0.008370265781648574,0.03380631286268468,-0.11004347330767977,-0.06623015666164724,-0.03322400711491668,0.04966479699326671,-0.060324405364758395,-0.06482490056957228,-0.0280991160448813,-0.19584974529864482,-0.0045464309312452395,-0.055081736737207565
56,-0.008279880403232529,0.03472853345723121,-0.1051919100775694,-0.0616227745662746,-0.03284511760338593,0.04511943483941544,-0.05474424179507121,-0.06383219985153427,-0.027300622286841537,-0.18529464610342297,-0.0027391105957597812,-0.05541254629161949
57,-0.0025956743588005523,0.03987069727248993,-0.1016122293177347,-0.057045780346665416,-0.026888262850251917,0.04018071330702421,-0.05269843109012598,-0.05994988308757967,-0.022016188813913762,-0.17855401480229108,0.0061180319730823295,-0.05158677664334633
58,-0.0012888284325134327,0.0445277617682678,-0.10029315312384322,-0.05160929971081122,-0.02540260831361872,0.037116833032136795,-0.05083999173549859,-0.05945476884876276,-0.01716559808967485,-0.17822146080106993,0.008909434928018418,-0.04677490460437439
59,-0.003945282579789492,0.04899133132732014,-0.0972866026609393,-0.05136528175433428,-0.02295080842833089,0.04381636523918673,-0.04775000073766934,-0.055010527734935484,-0.01699900253972291,-0.17388377437856808,0.008233038826996794,-0.04228248465003186
60,-0.009133790703006574,0.054699016791021605,-0.09552816178424867,-0.043031012594635515,-0.013401840474974207,0.05348626222684086,-0.04248730846218122,-0.05464584367739739,-0.00988862856728609,-0.17368680497624575,0.01276352118988204,-0.04174395519264322
61,-0.013421908312963653,0.051465432223000804,-0.08973269742820143,-0.03800753664283312,-0.012713920304231756,0.06324641260656778,-0.042270735704875315,-0.05040327374184133,0.011606745741678335,-0.17476298217081454,0.0119143374389809,-0.03757866781260375
62,-0.012246630795533116,0.05085730427799366,-0.089252146366312,-0.03358664971993781,-0.007693222675933356,0.06349774347349896,-0.038307914838882975,-0.05088481440171816,0.012200235876973178,-0.1842773279172082,0.0024765269990457313,-0.03866442334214871
63,-0.01668376290338558,0.04608300463227829,-0.08497480272775661,-0.03431924249764857,0.0013951717836596835,0.07034360708136529,-0.042911737901899415,-0.051240175983406654,0.015085342629384935,-0.18634223734060154,0.00015338971780658588,-0.035625051094191736
64,-0.016935518142298826,0.03754680834076818,-0.08469862702225718,-0.031916354980583955,0.004504294600125991,0.08640120630824824,-0.04221778638378122,-0.04809852399664551,0.01669777042930271,-0.1883811422612488,-0.002159517910331574,-0.033735682360401704
65,-0.016975795299156014,0.029567826182571897,-0.08038293114389901,-0.03175106318658507,0.004064844654023103,0.09501981360218394,-0.04240414985651896,-0.04628083274218912,0.020640266484112206,-0.1932932505808863,-0.003830378502568663,-0.03358318782879281
66,-0.016884878243598054,0.013862856821866094,-0.07926147942844186,-0.03168285007020522,0.004709011318124265,0.1092997393131716,-0.042397097188769904,-0.04689759026553796,0.017473179005388466,-0.19886544778302412,-0.010038246123895393,-0.03790981054429102
67,-0.017263996300477067,0.01090413354116215,-0.06868801900375393,-0.029326192810100522,0.0012417706552472173,0.11299231587389015,-0.042259269613713575,-0.04239495073447662,0.016942009228442103,-0.19535765660871499,-0.016754592858919986,-0.03810492849516321
68,-0.01506905292519541,0.005732313962756406,-0.0608945861116817,-0.02970500052952504,-8.958547846845918e-05,0.11415109435974731,-0.042693205304764135,-0.0426317485813517,0.016900121186444593,-0.19491820580892608,-0.016868431121358485,-0.0381488890539365
69,-0.012190809547211136,0.0012459926148763582,-0.059558673971601056,-0.029665406203754515,-0.00020225166002633727,0.1183140284637925,-0.038262988644654855,-0.04062021093732872,0.017178607343824783,-0.1948656755811789,-0.02150678413190203,-0.03819886885696412
70,-0.01329714504610031,-0.00387685377671111,-0.056295639099309035,-0.02971415246126861,0.004275704500247227,0.11466979329820917,-0.038165257371307486,-0.03334271443930826,0.015504373610670473,-0.1951374232373891,-0.026128420267119527,-0.0377636622549402
71,-0.00902750116123097,-0.004207071663816085,-0.05514156187387816,-0.02904304227012155,0.004165050292139714,0.11009731733445681,-0.03827437514175489,-0.03204776349027654,0.012565610836096773,-0.1935232678138128,-0.031231392920110252,-0.04042205057047309
72,-0.00880349615346445,-0.0038269949372913763,-0.05147094789317734,-0.024850921876531252,0.004249222232918426,0.10978638163457383,-0.03699911774425147,-0.029716586040923417,0.010734180956859714,-0.19015493794582447,-0.03386086682227207,-0.042564099065054935
73,5.4000872126303675e-05,0.004967816250995451,-0.046612687982092144,-0.026212186295417876,0.004326911140709898,0.10402714244017694,-0.03343817582873711,-0.026523720853856146,0.004935401736197029,-0.19113257684975513,-0.0361828839061923,-0.04274729592667108
74,0.004717564908952631,0.0038086961193917325,-0.04551440082378227,-0.021195336560340648,0.0037775778127508435,0.09157698105986237,-0.03402573584205788,-0.02549807707303024,0.004464723107942329,-0.1878725563930833,-0.0381457925019248,-0.03842491275640189
75,0.008861319287080331,0.00556220945759924,-0.032904145387085304,-0.013790284699944415,0.006999612074342439,0.08389361962214559,-0.03380781902302214,-0.02149279211698287,0.00016183467387137756,-0.18287976944209805,-0.04106059221586045,-0.03811842436649385
76,0.00813744609055962,0.011210430736615533,-0.032957919585279605,-0.009658549797574002,0.007987228893069565,0.08310775454829122,-0.03412403859301167,-0.016897012551652244,4.166314162370831e-05,-0.17824323678050663,-0.04638131134022388,-0.03382176384116752
77,0.009979557833873807,0.012478929535739916,-0.02910830060012512,-0.004484903834175648,0.015289393186569848,0.07342264759517202,-0.03335723170835863,-0.016285155376710252,8.252042583800579e-06,-0.17367429015522975,-0.04661091329405928,-0.03222423507252004
78,0.01539826871359075,0.01604720185470569,-0.029822281208487348,-0.0042482733068305925,0.021094286176113315,0.0721962539560613,-0.04233771239580037,-0.012827554984147086,-0.00021210894309655807,-0.17301692073737968,-0.05176825322292296,-0.024403484604398284
79,0.017542160543419418,0.016841187514484417,-0.029510868158174084,0.0005261273142040941,0.021177430284423687,0.06780676924003952,-0.042513639920093806,-0.009251132868074486,0.001440918964348649,-0.1702156428124754,-0.060850654371142024,-0.026001021608508784
80,0.013749964025428156,0.021025301458235057,-0.03006441768921265,0.005117373414903895,0.021133121682325583,0.07233382241612789,-0.047706491723909505,-0.003869992587165203,0.006617086261901118,-0.17401890621751614,-0.06382778422697351,-0.023050529260052556
81,0.009031645084304858,0.02579482906467688,-0.02577223885909021,0.010140748517371146,0.02161107338165614,0.07172601663212803,-0.05217346516340174,-0.0014048681935371157,0.011300638052315926,-0.1755176776703379,-0.06338634899974852,-0.018149325448587158
82,0.004242613796630438,0.02995984518734854,-0.025423586338230258,0.01316749239369358,0.018440289705752164,0.07326316715766366,-0.0573369002800788,-3.652063125487732e-05,0.015919356344488354,-0.18085568785840206,-0.06487710259891294,-0.013121633447529547
83,0.0037268059610432785,0.02950674247580862,-0.025727898503778285,0.012179540306261479,0.009609653263586532,0.07735310773401542,-0.05961396976199103,0.0036406021785086863,0.02100503324512148,-0.18533085187309953,-0.07694750905845722,-0.01269047195101898
84,-0.005833206590235829,0.029980260669428303,-0.030096913193917812,0.015754847042870786,0.008794209797255792,0.08787749408657795,-0.0592926126695155,0.008470163016568291,0.021235256686706148,-0.19046060511534296,-0.08455933828220788,-0.012676233615241575
85,-0.008497033148802319,0.027749698317031304,-0.029262639324826863,0.017117164729195364,0.005179390915057741,0.09420383268449332,-0.05923622243314367,0.003440827021027298,0.02566374590111891,-0.19068657006302947,-0.084763210935158,-0.012950320277734758
86,-0.021768505717089635,0.022618958734641776,-0.0313771648058611,0.016946009662100466,0.004328564469329775,0.09268515963670661,-0.059511629170377264,-0.00034684389116853106,0.025871332341318377,-0.19518942556816601,-0.08476283390456213,-0.011155527545833929
87,-0.03761352315509436,0.01810043705431315,-0.034726566566360396,0.016972291391841362,0.00021709455191877536,0.09712230287137692,-0.05499892998459657,0.00042133764586014925,0.032734438988294576,-0.19481752467031932,-0.08454793427126528,-0.009790416495896322
88,-0.04125737284164559,0.013061531213385165,-0.030977483396548253,0.016437322260800448,-0.004379616025954508,0.09745238158238884,-0.055332667629628934,-0.0020990339353663366,0.04146130658946401,-0.1948573933465488,-0.08613985245886942,-0.013618052520892196
89,-0.04148850998684414,0.012698602013648348,-0.029345463563379463,0.012523883690843025,-0.003997916657017631,0.09768825052078921,-0.05379039410912934,-0.004702766754581709,0.039611295287630716,-0.19534191640407406,-0.0875320257431002,-0.009690974361870237
90,-0.05077378191627067,0.012714171932278888,-0.029979476658879754,0.01136281783781098,-0.005442011962391148,0.09566752303508308,-0.052244770005719816,-0.0037538057854169726,0.03871394295177454,-0.192241832080326,-0.08601425041350495,-0.00796295769751825
91,-0.03833693696039234,0.012590524101123761,-0.025461009082814144,0.007863164472094888,-0.008813795464081703,0.08870535162803936,-0.05355895713223393,-0.00800691127717236,0.030616600734121705,-0.19075389138920554,-0.09219127607872214,-0.01251180241672361
92,-0.033274327933769346,0.013599995427701822,-0.025196879808549115,0.009186055489061724,-0.00883908941882107,0.08541410237218329,-0.05033846216729322,-0.008494385255922866,0.029647496366939245,-0.1873345685693013,-0.0934784822052099,-0.012681726289148827
93,-0.025149560814511317,0.019249822157623348,-0.020792351535456163,0.0047205262152722385,-0.005524508825411465,0.07957935429089875,-0.05105201820563637,-0.00851599344659897,0.024514263870102984,-0.1824145058037212,-0.09291406185430391,-0.012734049486798418
94,-0.022564766453155593,0.021018717254536676,-0.02131539317575212,0.008088834275203297,-0.004426332300435992,0.08108429574128627,-0.05051616372793429,-0.008224140433266464,0.00958177128990138,-0.17765554276341652,-0.09743129034725903,-0.012704009595883194
95,-0.008309836865650877,0.024065847772930183,-0.021144377495700653,0.0044516788101236025,-0.0004093154394368987,0.07704537263237655,-0.05494272675833631,-0.010080095335958945,-0.002165429817024516,-0.17345845404802995,-0.09763794649665698,-0.012714204387601626
96,-0.00048493231563607493,0.02535561186838709,-0.02122633392377257,0.004498652243872383,1.8933461450056609e-06,0.07599222444373956,-0.05500284766971576,-0.01126850956754791,-0.0055778296031256894,-0.1738200681994684,-0.1029057045655428,-0.012710677211808656
97,0.013004788667046522,0.02895143584700886,-0.02106269339910942,0.008790194440327637,-0.00024964795150212896,0.08055280488897286,-0.05556856531920587,-0.008022167038139842,-0.013413818093145352,-0.17370845751481698,-0.10623106041937423,-0.012714520313214153
98,0.020055673117789816,0.03386712440734112,-0.02159800025549589,0.008362796335862227,-0.005220947891865981,0.08092856888279437,-0.06094517296532339,-0.008451765145470955,-0.02015469482340687,-0.17371224342742694,-0.10596202019372043,-0.012703569746875752
99,0.02869656932281528,0.033819583073956064,-0.017413255005431574,0.008530907103730263,-0.010090433193727913,0.08498993528732068,-0.06360355397438709,-0.008815418812139,-0.02456872230736428,-0.17381492442677884,-0.10546940129313215,-0.012730784769789748
100,0.029785791380606066,0.03424223397839816,-0.01692359120806666,0.00834930705244008,-0.013148972619680963,0.08590380573743157,-0.06538487822194249,-0.004449077251730216,-0.029379068246413956,-0.17344460785328544,-0.10908762633036641,-0.012719496905652836
101,0.025267123045770702,0.03170217630905153,-0.01691458603767374,0.00893376209364191,-0.012298741167521422,0.09076253351772733,-0.07066224662853622,-0.004267009470202032,-0.03414594994692001,-0.1773482378908568,-0.11000167301392702,-0.012256668660214168
102,0.025492670988440814,0.022767867976883426,-0.01716654170944213,0.0050998896925560575,-0.015275634478176295,0.09821427637173137,-0.07507661661346739,-0.0042529945309925975,-0.038247329725156896,-0.182210210400787,-0.11412086985615863,-0.008334613413498332
103,0.02547504903733775,0.020880805543451297,-0.015545977726678728,0.004151055532241744,-0.020636980624111262,0.10534933318379167,-0.08037893807852994,-0.003981507736079173,-0.03913185398957027,-0.18244124613348356,-0.11905643243555845,-0.006877071950441359
104,0.025037032038122606,0.021680526279351832,-0.013899892262358802,0.004232334652667226,-0.021247574246978033,0.105922554686399,-0.07633114759922237,-0.005893713758452624,-0.04282764080899437,-0.1877406183936044,-0.13229664974817393,-0.005421910580553713
105,0.027745574988856773,0.017765566542854896,-0.017543754390883154,0.003907885922292836,-0.021194890255944954,0.10607280343160368,-0.07200700682028206,-0.008863901438005067,-0.042372841176140194,-0.19098281534767864,-0.13055579917561186,-0.011603221988991445
106,0.029534585985725496,0.016863606115221537,-0.0165732734737337,-0.0003752851172421294,-0.021034754149230762,0.10155803631468431,-0.0631916670250777,-0.008477272142148254,-0.04194475930260211,-0.1906987358703876,-0.12287875196208149,-0.012848567108868643
107,0.032894827927698725,0.016947146592843552,-0.017866263879473415,3.867722396488801e-05,-0.022335521662718648,0.10191661031379251,-0.017126973711729422,-0.008195463676427569,-0.04574802045709439,-0.19026559235549603,-0.09372700462117324,-0.012755236526952107
108,0.03394534148210684,0.016715830302362438,-0.009346495471323522,0.00036825079732446305,-0.024412017183944968,0.1006882569786223,0.012887492012742374,-0.012091491983096139,-0.046727143666766675,-0.19373596048049235,-0.07642778340631912,-0.012651771256315721
109,0.03401430584369269,0.011495428379120647,-0.008601947763180181,-0.0024547103019251326,-0.020716313485681037,0.09666061720077548,0.0702920489836724,-0.016955845809911194,-0.04661323880217863,-0.19531013437837222,-0.061928326764858224,-0.017355539620266966
110,0.029609020185916646,0.008469706051699702,0.005619597948974621,-0.004495834533348414,-0.020977480267699196,0.09968974806834421,0.17456111840416552,-0.016824189644499863,-0.046189653234962075,-0.1909545834926763,0.04619120182418193,-0.022259658739663672
111,0.028515264953429504,0.0066289400285713595,0.02787579174039893,-0.004295310006510612,-0.023861759391472167,0.10212662653694608,0.2635155604474088,-0.017612377896410434,-0.04214582435234034,-0.18632456822448623,0.1672412854091332,-0.02546153763819689
112,0.02056434005967112,0.0042695491358168604,0.044369069754280115,-0.0040266534876551505,-0.029216497194010822,0.10125385080938198,0.389869516929976,-0.023159952133309455,-0.04130524771953061,-0.18651963559593945,0.29018225417333726,-0.02730421540804978
113,0.01976795803191152,0.0013847450072525887,0.08377308692548878,-0.008523936488448052,-0.029696810427418754,0.10531718970865239,0.46346905543644706,-0.025304760129502724,-0.03606506766397482,-0.18635791434236643,0.45940456916620337,-0.029624379004002093
114,0.016808814924400003,-0.00020925162462992952,0.11770369495195643,-0.008900672146447984,-0.02966765818195379,0.10609867319187248,0.6221668866801813,-0.028063367230768466,-0.031024640067665345,-0.18674771778886992,0.6963728316738701,-0.03259998858626524
115,0.014696225872446766,1.3974320519596743e-05,0.14207271995770998,-0.012915231535265224,-0.02965643382310894,0.10186049717470805,0.9012270960938392,-0.0295938700713181,-0.029454794473019522,-0.18447093396149714,1.0989742696214861,-0.034182451489936067
116,0.009693667045848429,-1.1052363319065425e-06,0.17291091393479668,-0.014120885152040161,-0.029662717561596507,0.1052380787868697,0.9531305061481032,-0.03305628765833209,-0.029686616212825513,-0.17945875752422735,1.2074655911337453,-0.033703216484028756
117,0.0046040335958592166,0.0002599780784513447,0.21473594037107738,-0.017194556494984848,-0.029660100704008166,0.09530060155841377,1.0960263447040695,-0.0379726032670092,-0.02966514550480799,-0.17443080681366882,1.4321292462550663,-0.03820524795507518
118,0.004346142173288076,0.00549558848425879,0.24769798374556057,-0.01866772524328854,-0.029663189559342197,0.09293934992548293,1.2257597342413002,-0.04276290384766895,-0.02970929342650685,-0.17358750028128322,1.5010827901568846,-0.03881950793347717
119,-0.00010795306963671794,0.008501746515582468,0.3030224196987189,-0.02750050995146482,-0.02965283661145418,0.09374833538776293,1.3306657152280905,-0.046769039123188534,-0.02911330624853054,-0.17371267379004524,1.566660935305487,-0.04147201602348143
120,-0.0002958527499167498,0.01022841056872928,0.342225932430506,-0.033324287483133715,-0.029688951208073577,0.09019864559844568,1.3604741222651084,-0.04742539990245171,-0.024011477269171543,-0.16923889598058206,1.7402306831717014,-0.03922615863411484
121,-0.005824301754367818,0.01325164394264386,0.38692505258002896,-0.03792670617350216,-0.029586436994382768,0.08938661091991258,1.3232652326359926,-0.053189095271952216,-0.01927586853708559,-0.16953985912403943,2.0250606916799163,-0.0429303416563202
122,-0.008200412305184,0.012140212922287381,0.40410269736840104,-0.042713521333612475,-0.029736494030955553,0.08465051299099569,1.2980613413942985,-0.05504913400197088,-0.015000528252700823,-0.16978668653496545,1.9865686635200577,-0.04222710469433182
123,-0.012114744061093603,0.016331783322357716,0.43218700832629636,-0.04660811590701465,-0.025165910362375716,0.09311674659381902,1.1969702346276598,-0.05751606063799165,-0.0070463418971391375,-0.1675016710390455,1.9433389570766217,-0.04249274514963423
124,-0.0203496221978781,0.01676175461813116,0.44165164689461733,-0.04849224810934817,-0.026207953370738023,0.09301821355585907,1.0350815664145137,-0.06312715600555244,-0.00020259097080709606,-0.16487737955298992,1.8548144955111219,-0.04214471902248825
125,-0.021170921890404534,0.021196053286022944,0.44697111000808243,-0.05769759847032905,-0.030068323803020727,0.0939149427259486,0.9288105917025528,-0.06340481860237712,-0.000355230003060598,-0.16535711044739973,1.8117679671483926,-0.04664821908456653
126,-0.023906177032754956,0.016190629578235857,0.43073915746874974,-0.05950443815530647,-0.029575942158414383,0.09870239917175153,0.8703752622657053,-0.06787329840230368,0.00865449354949564,-0.16515273587716647,1.7296243651915546,-0.046216447119690876
127,-0.033893827728627146,0.01262108675225827,0.41681368227398685,-0.05929140853340051,-0.029569213808334393,0.10454729539638989,0.8127140639275051,-0.06785019193850836,0.00792113517779577,-0.1653866391696619,1.5673117609153158,-0.04108625880329662
128,-0.025241921162392277,0.011657674699743428,0.3801579436061372,-0.05930012688400203,-0.0301092944694006,0.1018006824974302,0.5906028435369998,-0.06675658085898273,0.002994461045962685,-0.16087502355472455,1.4976955043465556,-0.03767898241827892
129,-0.024577281598153387,0.006506239177137807,0.3444200385458903,-0.05939324233671952,-0.02625293502278221,0.09434311804537933,0.4440798634199211,-0.06346496633670652,-0.0012562556793229468,-0.16095742086452597,1.3965210471230132,-0.03874889688333002
130,-0.016415648505616824,0.0014512974974627976,0.2864644523486657,-0.05929062388113657,-0.02532768340115274,0.08952926354453739,0.36551629821442133,-0.061429465923806645,-0.008697762981392188,-0.16207300687180887,1.1930932158825862,-0.035014591590695726
131,-0.014787174912346436,-0.00010843115589389998,0.25571117518723174,-0.06379551338987387,-0.025423952012193742,0.08926168708462953,0.1855777540883144,-0.05929218814702614,-0.015141597725425438,-0.16599306848679016,0.9982503193623959,-0.036789861755348464
132,-0.004258924592819941,-0.00035094201080964303,0.20064292730193567,-0.06340314948558863,-0.025401872565998292,0.08043366265296445,-0.09016130154697446,-0.056491814799190854,-0.0237422416576109,-0.16327839919814033,0.913334013462565,-0.038597062986480246
133,0.005313858095320823,0.003988785430056159,0.10708736383193308,-0.06389941904687274,-0.025637559758992675,0.0713722019605712,-0.21178706641893175,-0.051159812789917436,-0.025500963348816158,-0.1578806784377232,0.8370519179680398,-0.03396777737880841
134,0.011569419684794194,0.0042630315457280145,0.020434542481533813,-0.061678905917923396,-0.024024224240523497,0.06670283281355788,-0.39374695392848197,-0.05083989389508847,-0.02954267928737902,-0.15651413160621755,0.7717670939571639,-0.0339481218183317
135,0.016379794348773406,0.00922581472717991,-0.14776320583512534,-0.05896881052009057,-0.021038269481484517,0.06301722402732647,-0.5430112392205034,-0.05083543634581879,-0.0385991265387475,-0.15705271946854507,0.8639882980885715,-0.033888230327688916
136,0.017005479817344363,0.012826737890500869,-0.26592373406871933,-0.05928034385198023,-0.01925900828002338,0.05159218855980363,-0.4350636398343808,-0.050853918203253815,-0.037316085554456514,-0.15252834766948653,0.9457191253223617,-0.03381819444632449
137,0.016952976435030465,0.013778529762271547,-0.31839048550501575,-0.059681179452656115,-0.013643983284889458,0.0387658561206352,-0.3047027762485352,-0.05083930501842351,-0.032402879867073686,-0.15237413734098307,0.7566683263737544,-0.03432555443809241
138,0.016953484834902232,0.019034660242380666,-0.3716073162338207,-0.05536190621772574,-0.012485806244357082,0.03554470594685499,-0.46652782559953837,-0.050879083964307015,-0.027707942986795218,-0.146496415927426,0.5687533375942185,-0.0312868566479908
139,0.016886661109192028,0.023679628491548498,-0.5249057204845599,-0.0551020698353119,-0.01292367063934585,0.030150144881331838,-0.667746139880491,-0.050717056111961735,-0.022966543627567282,-0.13652575050171323,-0.11852215556843755,-0.029845278885348096
140,0.01729778242192277,0.028144433874691958,-0.5781124275077859,-0.05507303352796645,-0.008403962580510781,0.029653023016652267,-1.241789037560715,-0.0513188675003423,-0.018173057948274507,-0.12871122129017645,-0.7305797132481016,-0.026043619379749586
141,0.01489200051316924,0.03373742057205843,-0.6511236190968763,-0.05502547442241858,-0.008510640325933386,0.029725774887075607,-1.2817365345893108,-0.047131175047158316,-0.013594131366914432,-0.1267743772817188,-0.8969803593478322,-0.0254801912179089
142,0.012784526619141,0.029927772119528115,-0.7132656389022357,-0.0554472142627831,-0.008743912110387976,0.03455543822826692,-1.287051993790837,-0.046708620543768314,-0.008536216019082995,-0.12762180224340675,-0.9994279374633015,-0.02087710297758185
143,0.009761204522976729,0.029620860216253136,-0.704500954443575,-0.05291196763829783,-0.0066523280061488105,0.03934671865781697,-1.2423849665791717,-0.042222880815395415,-0.008151572422133971,-0.12337212086379275,-0.688861707645211,-0.01686206124198842
144,0.008278499098019084,0.024739189423131556,-0.6920684586236828,-0.0509787905797231,-0.0058861813191350325,0.043179597742720933,-1.2212200805876636,-0.04242700638441209,0.0006593373456777719,-0.12295293349435638,-0.14488965339352117,-0.01592025352164033
145,0.008496954073409814,0.020150635688518298,-0.6393649233983378,-0.04761566824098155,-0.008807839960039575,0.0532024099944845,-1.1326099241534564,-0.042626044803387636,5.016049255731734e-05,-0.11838617955173655,-0.36087276245361166,-0.012234093580917597
146,0.008475300227714947,0.015375226276540258,-0.6271149226144044,-0.046807348107671204,-0.008826636967147609,0.05984621398646912,-1.0639925027902615,-0.040605830010941354,-0.0017364414156434231,-0.1198383165332787,-0.6709531525574709,-0.012828117713700628
147,0.00847511470973861,0.010771873887184072,-0.6047247787044758,-0.04249974431071745,-0.004803541288306781,0.062390115776484685,-0.9983666411868758,-0.038041654176529806,-0.004226157043052362,-0.12913457742284043,-1.013318627930169,-0.012681857637098545
148,0.008460074620541684,0.005651142446734294,-0.5353698844916571,-0.04221476961205341,-0.004226503508151848,0.0634229538211412,-0.9396653157838316,-0.03582142473645453,-0.0070045907317362825,-0.1314602982516118,-1.0178574868365096,-0.012735651882030942
149,0.00855826719436878,0.003903675371886452,-0.48687709141439045,-0.03793271800523598,-0.004389344679882861,0.06757614825605386,-0.8283205534682161,-0.030136229220528023,-0.008796658085151798,-0.1318092821267121,-1.054732697521528,-0.012667508166798612
150,0.008077472856661841,0.004624101507189091,-0.43436573857674615,-0.037091695293688595,-0.008967297790673753,0.06764576369894629,-0.7276751073120328,-0.029848934963545598,-0.008216261566248337,-0.12823867484994395,-1.0428611448351572,-0.012684112023599961
151,0.010898857667883118,0.0002211480079359297,-0.373096932153233,-0.03370355433725582,-0.007287802839014174,0.06265996310959715,-0.6206909426139195,-0.02539581906432021,-0.012747540350358421,-0.1277158410440418,-1.0005476358713614,-0.007702102407354526
152,0.013044461184815878,2.4935408320967513e-05,-0.34632221730564366,-0.03210005996545563,-0.00371941873134597,0.05920268932366873,-0.5848596646686103,-0.025087320451227545,-0.012608733850331543,-0.11932931232672893,-0.9638589665137262,-0.004330442864377762
153,0.01255652592254666,-2.104367413709207e-05,-0.30201046611857135,-0.026936487104711845,-0.0047661779445459,0.05808856041709099,-0.4870477382257185,-0.02061490523512857,-0.012966417428832885,-0.11864307447572521,-0.9135846840668463,-0.0016989206288394107
154,0.012956488935228766,4.5935987615993194e-06,-0.25432875202228894,-0.02197084713181986,-0.0014758959798115254,0.05287666299185182,-0.4337104104767095,-0.022019504604480294,-0.011243029540187457,-0.11348464835725942,-0.8601304080546519,0.007320107070442556
155,0.00847028778440991,1.556913133240212e-05,-0.21606017529977525,-0.02097002122210367,0.0003375702916709459,0.04800564248536257,-0.3822528908385982,-0.016895983190383577,-0.007949885484507877,-0.10365845695241065,-0.8209377526973017,0.008184030827799279
156,0.00854590970035829,-8.144032168365983e-05,-0.1866260653006159,-0.02125412662736852,-0.0003202120314732083,0.044280219516837305,-0.3057202688462071,-0.012466231370949737,-0.008960250064586856,-0.09557325045423236,-0.7209527888457428,0.011671325400379467
157,0.008396725946073704,0.00033320913515547134,-0.14776218866106341,-0.011948571665456459,0.004168778116127459,0.0314334128130584,-0.2705231032924423,-0.009619937649534598,-0.005452549018983388,-0.09134095486192972,-0.68575830639807,0.012920546169666407
158,0.00876887072652325,-0.002706704381376496,-0.1255394948686007,-0.008297833163774708,0.004178180000990441,0.02158390992489111,-0.2080182678755897,-0.008303641085249818,-0.0009086693023384609,-0.08620322974880021,-0.6091487111303561,0.012642545024342405
159,0.006736434231935304,-0.008026827990974102,-0.09167467272866735,-0.008515506528660436,0.004312187088455371,0.007877548276816453,-0.17947714103901982,-0.008503484484170319,0.008232891180572893,-0.08256578550361071,-0.5376832523005173,0.01715456020688188
160,0.0034810662074202855,-0.008507527623991321,-0.07919530336444718,-0.008535409065127429,0.003936927078470672,0.0029061670527610506,-0.1515898848550316,-0.008743035358731091,0.01285378186910689,-0.06973786614126681,-0.4811864795122517,0.016901494312087772
161,0.006900528430468528,-0.00846413104853476,-0.05506334324998448,-0.008156158535360043,0.006021988843832448,-0.0057595050126175796,-0.136184622808103,-0.013119764866809967,0.012250718154450816,-0.06357931074055687,-0.44223044002462303,0.01666749560617929
162,0.011665072359133857,-0.00870581549349842,-0.03566531642783619,-0.010989875776283325,0.00888145762910769,-0.011763652443832685,-0.10401610961284465,-0.0123721637300449,0.005834285366622037,-0.06346209560109385,-0.4050922513489005,0.018865723942739637
163,0.016675302282047933,-0.006728507025469163,-0.029898683332916957,-0.016485800730214217,0.008358611848472882,-0.019875128446152364,-0.08766435641341741,-0.014199927517728616,-0.0027104507772217064,-0.057876788352199254,-0.35846106800537725,0.021446810306293865
164,0.016940055694743283,0.002542679696940514,-0.025555589806835116,-0.016835928839810735,0.008595454869731874,-0.02293221477370801,-0.06869942228799066,-0.01974499353476125,-0.00407301417731319,-0.04884786276696519,-0.335751449286261,0.021553331228926
165,0.02195890205734939,0.00401425708966256,-0.007165368957203733,-0.021296969953284117,0.008228340913426353,-0.033477757831324256,-0.06320121447944684,-0.021493547249589743,-0.0069239919182600895,-0.04681524869618514,-0.30283806112571315,0.017593861434747417
166,0.0309854813173985,0.0068377036660231295,0.0016409240734031917,-0.026083363579843498,0.012725662212009239,-0.02279800713082153,-0.03551170807942446,-0.02086843379564309,-0.011739389366372796,-0.04404632798368418,-0.27493341425776907,0.01689765269540854
167,0.03444772700325327,0.008761270608735463,0.010531550158170396,-0.029997619701897398,0.01274360442478625,-0.01699239511232009,-0.029452727285672553,-0.0250424050396967,-0.016954188414818133,-0.04445076706499751,-0.2611492185913995,0.016939906225150705
168,0.03199580259358947,0.008373497536284757,0.012673950867386194,-0.029551006343313962,0.011894319172224966,-0.012650758092875754,-0.029949144342701975,-0.029816565243303898,-0.012619061254605943,-0.05037176708780303,-0.23933416416160758,0.016946240732233386
169,0.029619023112010097,0.008571690162110797,0.014517309638163233,-0.02973806749018819,0.008011432914359733,-0.011352182949278073,-0.028057539424076346,-0.034835744257905164,-0.012250344517495368,-0.05073088114668753,-0.21607078482667672,0.017009528901401134
170,0.027260808141514478,0.003909799314970714,0.020129680672995857,-0.029443807278961526,0.008595099736179196,-0.0028452641238712385,-0.022320891831477438,-0.03741880529749824,-0.008183472078850743,-0.05512875568931633,-0.20773906943797368,0.016627685360429023
171,0.022145835622769394,0.00015754911835674134,0.021346281659839168,-0.031961119358006544,0.008446919658814821,0.005224693648501664,-0.02145084568279273,-0.03337237307607986,-0.00740553362656863,-0.059515317994876284,-0.20346595335290735,0.019022091022847572
172,0.017550202149033533,-0.0027932856770981843,0.021163007478060596,-0.04137146429103365,0.008480105499505407,0.016480819387708533,-0.017488300419862816,-0.03391675007257901,-0.0013288465423866999,-0.0592402527351766,-0.19388829287213058,0.023574515425944957
173,0.012791938557373608,-0.015711776277888594,0.02118853973993548,-0.04244667073278336,0.008473676921503994,0.014846255608991615,-0.01700135677450261,-0.034325750467087,-0.0007329947992697572,-0.0593646187366327,-0.1854480408317791,0.03216480241054712
174,0.007774345382294296,-0.016902965932479454,0.021205459122313895,-0.04239137170160546,0.008474665263791665,0.005975985245619285,-0.012373174363241174,-0.030546806686796376,0.00685648075166993,-0.05922672262886946,-0.1792854275511598,0.0377361278405058
175,-0.000463425842478532,-0.017424078762650057,0.021015881760054228,-0.042358588315358554,0.008474585490687756,0.0001465495939101452,-0.008244195181316739,-0.029557716999064985,0.008235517637936854,-0.05968954864586138,-0.1729031973152403,0.04241067090012577
176,-0.0010137016333918289,-0.01360621510294759,0.0223308350166357,-0.042395947299821775,0.00847456731688727,-9.890845199275087e-06,-0.0084849115706343,-0.029661593005622322,0.016914444287840787,-0.05647763458629642,-0.17395021809588143,0.04230691118171544
177,-0.004444993423527524,-0.012914049229554726,0.025977632296725815,-0.0422735363396681,0.008474584033355267,-0.005227386241038828,-0.008824946053376944,-0.029639908387269882,0.02119506027186062,-0.05159797525621876,-0.17356974166905256,0.04239889731157052
178,-0.0060560989886763094,-0.008592269939342631,0.024876449344020696,-0.042808899829540024,0.008474550320126137,-0.014048855543175373,-0.0062204689928201,-0.029871807991777716,0.02199839738742669,-0.04672914133432246,-0.17410154917800025,0.04236391280464821
179,-0.011075655810987036,-0.00832832937869168,0.028230946314671334,-0.03957387645930732,0.008474691030841577,-0.01855479055669922,-0.004025132967660147,-0.028261307447213356,0.02582876852413033,-0.046649190513804666,-0.16970705591131843,0.04238122391208885
180,-0.016469246722244976,-0.003871605601234953,0.02989028461472295,-0.03791110464850376,0.008474114596539531,-0.02165708367603032,-0.0038944778311364716,-0.02500708164627076,0.025606156214445824,-0.04653850525143173,-0.16948509901121817,0.04234657257108467
181,-0.013620418054980493,-0.00436266950987375,0.029626353772465638,-0.038165412835657414,0.008476194809619938,-0.020711720322263143,-0.008021394014229632,-0.025434630702781135,0.023317516447485972,-0.04694330516688951,-0.17003481343157414,0.042461848443899726
182,-0.008519061960098214,-0.004202537822953555,0.02966477288825953,-0.038134860571268935,0.008470039497988373,-0.024025048904765353,-0.008496769408994782,-0.025716953052112548,0.017797742228393726,-0.04432551424391249,-0.17390028399239546,0.04214073135620032
183,-0.008272695556089154,-0.004243745068614823,0.029677448161120158,-0.038138594945437976,0.008480805962969759,-0.02852684553237477,-0.008739664290720105,-0.02210883929065472,0.016753241521631195,-0.03027404168745066,-0.17525319119298746,0.04650215510055815
184,-0.0040141583879502,-0.004244208052539257,0.029500174671045834,-0.03809958769070082,0.008513200396499155,-0.03750942504141889,-0.013636502224481937,-0.017030834081779602,0.0170788036221009,-0.025126398931254533,-0.17810087294576193,0.05125237174133031
185,-0.00337921120152576,-0.004207333928315558,0.03076238535359777,-0.03835013212877501,0.008013948660445188,-0.04242625407228407,-0.018638822022880423,-0.016828140663874003,0.012549078372937474,-0.022048181858249808,-0.18016361296971262,0.055981829243284695
186,0.0011185800445553309,-0.004319722997365288,0.0343730882747488,-0.03671912751982327,0.0026792846781662797,-0.04213600990449295,-0.021154086494216226,-0.011688371611603713,0.012804327124414448,-0.021272613430287902,-0.18570474107333879,0.06093814220416412
187,-0.00404231131248544,-0.004138600853007643,0.03370123314472115,-0.030961751955071677,-0.00033293319666354774,-0.04383416760281627,-0.02351080178661289,-0.008139524073996653,0.012688405694462779,-0.016906301900090036,-0.18663122246310376,0.06419026562900598
188,-0.011862541184147273,-0.00864351704879405,0.03425746800368281,-0.029923817111798673,8.096690025302837e-05,-0.04401130960636778,-0.025771198520133473,-0.008645085393832314,0.012680393581607871,-0.01211278405450559,-0.18635437115514664,0.06148083512966112
189,-0.012816172768586563,-0.00841049450763545,0.03107951871591172,-0.026100093351205163,-1.7339042420678855e-05,-0.03745912676735832,-0.02526992594363754,-0.008090577305258456,0.012883873030431599,-0.008144803926250948,-0.19052294787841897,0.055765445083214966
190,-0.012735117262557707,-0.008321115704524288,0.025819635848474586,-0.025554134657070317,3.1549230701444624e-06,-0.03621087406317558,-0.025642720020213304,-0.011107604002564768,0.012053177477725783,-0.008573535666135628,-0.18670278464590967,0.055573731606609146
191,-0.012654087899889702,-0.009690341382126875,0.025395449219414522,-0.021126454399779105,-4.308383067082644e-07,-0.030346184662455377,-0.021131991919798428,-0.0159296696215709,0.01684432084182544,-0.008449276847354466,-0.19128563149678737,0.04711935260652344
192,-0.012391525669196542,-0.01567294828852298,0.025416112768294866,-0.021323997143476513,1.7518147143123914e-08,-0.029797212276405614,-0.021285164982374923,-0.02109485742702641,0.009371296663488148,-0.008480242102379094,-0.19048899592713878,0.04224768205144589
193,-0.0031533965143643993,-0.01594427153904456,0.025428205790176756,-0.02074625217799194,1.2025179780283264e-07,-0.02574892024653017,-0.020988520486782798,-0.02134373222032655,0.004227101761694512,-0.008473486964880216,-0.1908363606401326,0.03634913522440588
194,0.001282882655176425,-0.02640632536632713,0.025423392431748147,-0.023845330137093727,-9.332848469679231e-07,-0.02112062214875971,-0.022324777999277436,-0.03561417243277519,0.0038963706008000093,-0.008474739804069317,-0.19021960655623998,0.021734187103814678
195,0.004446212576638263,-0.03378035223935332,0.025417540659618217,-0.03223673880036698,5.459297141343839e-06,-0.02082392479443738,-0.027853873960037853,-0.04388770634000721,-0.0012314653744448342,-0.008474564645412127,-0.19420097202311137,0.01742786849841752
196,0.005521553038403587,-0.03392475196824695,0.02545350977073464,-0.03627069123462969,-2.6628420702355897e-05,-0.01542993144324751,-0.030050443977362958,-0.046659718709890025,-0.005728362861201487,-0.00847457237423484,-0.19497294909075535,0.01048521543279834
197,0.013679768258525075,-0.03416729275739436,0.025303945470744573,-0.04132350385953781,0.00011373940348102789,-0.01238422398064485,-0.029172614382369757,-0.04826998578828281,-0.011054076708478317,-0.008474582967788602,-0.19489927538365115,0.0007630859544755825
198,0.020686089601835832,-0.03832153959301052,0.02584636545639408,-0.04545831818747325,-0.0004276613751964416,-0.012792752387045405,-0.03332824570104478,-0.05376936453289582,-0.012533874411169885,-0.008474546022629353,-0.19538729330277962,-0.0032971267178650288
199,0.020936451618887988,-0.039191275316272485,0.02179665608413096,-0.05480689335280326,0.0033975827413161453,-0.012694188181848887,-0.033932303486910884,-0.05750944406842467,-0.0159120578189372,-0.008474726096717802,-0.19957303111940478,-0.0078028965077030915
200,0.025226264955439733,-0.0428300629205545,0.02109400066277338,-0.05511540776946549,0.004482561014741694,-0.012715308540454781,-0.0338621664972552,-0.07014077637084354,-0.017149163335389524,-0.008473921863966035,-0.19903673428124405,-0.017052603238181956
201,0.025373699057869164,-0.042381202699178146,0.02103130784873379,-0.06066066009354548,-6.92937204679354e-05,-0.012710996616591735,-0.03448552909580175,-0.08044760115420622,-0.016892688674206967,-0.008477080685693602,-0.19915025496333177,-0.022608199937755057
202,0.025690701864944876,-0.04191034134774565,0.016776688212678078,-0.07018554759414503,-0.004317344705354792,-0.012712315499415741,-0.038555477083076994,-0.08073232251057716,-0.021482212155678002,-0.00846649704185504,-0.19927921116547434,-0.035881950300216764
203,0.023629810759063993,-0.04581766862551627,0.01607207842187846,-0.08026345270653384,-0.005150905642451856,-0.012716224621051252,-0.03810319522179299,-0.08522010266996664,-0.02031515148106571,-0.008492921462474148,-0.19869009038936525,-0.03939220263081378
204,0.014809002067225227,-0.04644904424968204,0.012222923335934846,-0.08538262531026403,-0.008302653554095311,-0.012668402313810946,-0.03776415609045389,-0.08428379846565215,-0.016530672016493796,-0.008482107287791682,-0.20298292092111386,-0.045002882961877134
205,0.010768433132169731,-0.05077909587036863,0.012835748576943943,-0.08469064912971645,-0.012296809899811849,-0.012978328620250086,-0.04078592432840981,-0.08678200069872738,-0.017051507509302528,-0.00803486658591357,-0.20330088999941986,-0.04641233701781384
206,0.006015815958911658,-0.05071817098388806,0.012684275632497024,-0.08448050188427104,-0.017715936566846634,-0.0110649329654316,-0.043040152165718874,-0.08891180727346888,-0.01695858275236499,-0.004050625552539612,-0.20758844129689422,-0.04984048863637784
207,0.0009071307603181747,-0.05154974555254778,0.01271580404442124,-0.08823398913735563,-0.016820597458020264,-0.0077448377821519795,-0.03847162206444569,-0.0919469264685489,-0.01682700608769328,-0.002927485476582178,-0.2028712506010404,-0.05097385162596252
208,-0.00012311260174311972,-0.055732816523240365,0.01271579904812217,-0.09319837551177027,-0.01690058004064197,-0.01095581549238146,-0.03816930594005895,-0.093491010412357,-0.01732574815730655,0.0004957512748834145,-0.2038535603416347,-0.05084323416685369
209,2.1469540525210834e-07,-0.05359444998659322,0.012702847442266293,-0.09355510718709033,-0.01707770641718427,-0.016283855281979287,-0.03360189500151524,-0.09304501232620571,-0.012869536819279683,-0.0002262399509109022,-0.20146545168087976,-0.050842494959780146
210,-2.4776136559250373e-05,-0.04816054818437238,0.01269307852179115,-0.09710983452341546,-0.01249992173163593,-0.017033661562188142,-0.034588915976958026,-0.09758325858183159,-0.012593244943814221,0.0004523515204011148,-0.19924013170861354,-0.050853293381145935
211,0.0004720243587114846,-0.04636254478155457,0.01305610158778718,-0.09264244615460368,-0.007911752941071137,-0.01694533569286876,-0.029979849363816608,-0.09735932794175621,-0.008128413512075513,-0.003676886026772043,-0.19618474808868547,-0.05082484490678901
212,0.00466070995505646,-0.046678656870610444,0.018339490161270965,-0.09338183382910545,-0.0023990944022260095,-0.016859443309992058,-0.020272574220019324,-0.0975595419755835,-0.008524542949804056,-0.004276791823875946,-0.1950826382761193,-0.050953717846867426
213,0.00406805513679846,-0.04654163394820849,0.021277285541346336,-0.09315204975164848,0.008342574291828919,-0.017731645417389596,-0.01896839625091852,-0.09708036593648531,-0.008828929598673471,-0.004260478546741659,-0.19103746503397862,-0.05040290689334391
214,0.0044855798336549,-0.046639893883831635,0.022673861897918725,-0.09334829974237474,0.01254449787278652,-0.021553764169442206,-0.017057858701169524,-0.0997229246390408,-0.006128177910014425,-0.004101335691104557,-0.19070144445462822,-0.05391470052706647
215,0.0033376413001087015,-0.04200854549020389,0.028348425695755165,-0.09283969455167512,0.01780390767118663,-0.0214672021656844,-0.013449497619432255,-0.10202318367006863,-0.0042613416729079074,-0.005174873242006566,-0.1901989849227003,-0.055335079130066515
216,0.010307685570704512,-0.03633051727832925,0.02986969158625491,-0.09715689156708328,0.023887081110663618,-0.018776956939395947,-0.012784217883347064,-0.10161570974784873,-0.0012423251090660124,-0.010384106105052563,-0.18625291596486748,-0.054928312134799546
217,0.013230701282985818,-0.029057120800364204,0.02960811830271405,-0.0974449865827362,0.03603521705607365,-0.01676386715722529,-0.008371111606435134,-0.10175516990559612,0.0038704325850266183,-0.014859570397659158,-0.1851708265811325,-0.05946257955596837
218,0.012327721453708241,-0.028527211359902233,0.02970410518783644,-0.09747190063808855,0.04644225167388757,-0.01661425228724078,-0.004062434498487239,-0.10170907528573245,0.008524358587237919,-0.020183295477635074,-0.18143973033236824,-0.059272292563976293
219,0.02136063639781561,-0.022369244761731456,0.02970509244484917,-0.09749325776551934,0.051599028538591996,-0.020874005781342388,-0.0041319417443232715,-0.10649114883770654,0.0173230834567782,-0.02106641435904653,-0.18444331932522146,-0.059087959119081546
220,0.025444138727036197,-0.0219069994108206,0.0346066715040068,-0.09722107722310895,0.06490595963209278,-0.02118414285389228,-0.005426592927402892,-0.1114185363447724,0.017691322240734445,-0.024813276420649157,-0.1899348979550135,-0.0609826192220381
221,0.026242284959538606,-0.014282067768721176,0.03838992420834178,-0.09903699783552015,0.0700101314463019,-0.020912862510462215,-0.010470539225056431,-0.11444634026109446,0.031941955816928595,-0.02967322209853799,-0.19055564687971396,-0.06420817678696084
222,0.030154202771249278,-0.012763270037615869,0.038276906591211905,-0.10473941621532386,0.07846692606528889,-0.015628341861910512,-0.015759493808995547,-0.11632415517047391,0.045448414031507164,-0.03001512068163868,-0.19462984889554913,-0.06254529094709367
223,0.02943024406527602,-0.008487215715406405,0.036663118632672756,-0.10581483724715932,0.08303715059768343,-0.012616416036815866,-0.01648511040332804,-0.11912886509440053,0.04939253794866365,-0.034386163805873726,-0.19920002993958125,-0.07057482879278135
224,0.03014067608185544,-0.00857336555539941,0.03095415331594187,-0.10918689160177569,0.08481589443247206,-0.011258744113646501,-0.021259463463336882,-0.11820407941673676,0.050666461366718964,-0.03344517286350601,-0.19987773847637244,-0.0720211856661405
225,0.026653518397304333,-0.008233281575497683,0.029766836220906385,-0.11431402165830994,0.08726037211129432,-0.005534539038858621,-0.013071260677555041,-0.1221924092368532,0.054518684185717745,-0.03592129896543042,-0.2027284079704058,-0.07638376542972976
226,0.02523627792345667,-0.009843044613402543,0.026606254612573436,-0.11452231924025554,0.09676087392876608,-0.0041226863483133525,-0.012625404083447318,-0.12686446143001553,0.05511638763986464,-0.03863034046117964,-0.19846504299331516,-0.0810471425726842
227,0.02544585786113005,-0.012838403896657285,0.021358157507863906,-0.11930772082692627,0.09747252848594823,-0.001773796075415699,-0.008152919239496929,-0.13616394583593153,0.05509441954511188,-0.037573036106038245,-0.1997577765520419,-0.0861156150591351
228,0.0254241478027602,-0.014689089531649399,0.021168754751776354,-0.12514451984890554,0.09756582818192074,0.012064559584478402,-0.008075418947439765,-0.1401049683590034,0.055124753620818034,-0.0419990229396415,-0.19615933949069903,-0.08900547815526474
229,0.025423964635653766,-0.019740166658613358,0.016572963860042346,-0.1335233114986867,0.09672315166891912,0.012647090213000426,-0.00038133452713424895,-0.13924530906613533,0.05479490956563488,-0.0421724056484364,-0.19502282387250003,-0.09096569847224441
230,0.025412310988604234,-0.024887402418655516,0.017934089839075715,-0.13767113352499977,0.09245208443646649,0.012770892786673363,0.00449389503836912,-0.1431587178897365,0.056892282592710286,-0.05118980267143006,-0.19126747996725932,-0.09381145123131873
231,0.02549072322346798,-0.025258439824587232,0.021292837508097965,-0.14253467103102568,0.09527071004565653,0.012691106141627276,0.006946842877687525,-0.1511301071536518,0.059715218092162174,-0.05064842899909235,-0.1864313516177145,-0.09237760604990344
232,0.02510358790203196,-0.029674490747757274,0.022942076751506328,-0.14723354368829236,0.09749887849745292,0.012711775730533066,0.008436443698491874,-0.15534204854126188,0.059240187521207965,-0.050933680056863266,-0.18161361400115877,-0.10065557580332239
233,0.027510088421359002,-0.029596162911506695,0.025799709473289953,-0.15195872074165484,0.09988944398702417,0.012739984501685406,0.011926397096785132,-0.16007958496396482,0.059342254653329006,-0.050726051678813326,-0.1776521493406607,-0.10582648696113024
234,0.032421309585960074,-0.02963565266473299,0.0254961516129355,-0.15669106509902703,0.10549613202249444,0.01259186558524064,0.01691925871619333,-0.165066099297506,0.059306673432578186,-0.051303005528971955,-0.1780615709820475,-0.1150699753981253
235,0.037597582165685525,-0.02996430948896272,0.024924286225899275,-0.16147169557379787,0.10577361348552833,0.013137081647934321,0.017158774128393985,-0.16527079209050116,0.0592957604881587,-0.04791500937944296,-0.17794152921281842,-0.11964288357442796
236,0.037944835249719006,-0.027779255189281076,0.029595093194909335,-0.16557534623617856,0.11022407664597945,0.009065302512948492,0.021982691696377298,-0.17104016605342148,0.059833303132707266,-0.04651306269954354,-0.17797123755634794,-0.12338095922876169
237,0.04236448146474474,-0.025036226110932838,0.02542962704311665,-0.16501409990721935,0.11009003045492237,0.008402372906306669,0.028026396448767008,-0.17714317269155228,0.06398925449398472,-0.046398264455381956,-0.17796666976842293,-0.1350882555356537
238,0.04266062979483767,-0.025502988849358834,0.030303797302820144,-0.1659909974249712,0.1102008104264665,0.008325825075545834,0.03619014907797517,-0.16505343620712437,0.06341915864129263,-0.05087759989621873,-0.17796140832484678,-0.14673785381056564
239,0.04684124454610346,-0.025410695373195968,0.034171072152100766,-0.16003427065885642,0.11015854426996778,0.003474717067322536,0.04049859234552324,-0.1464726929807142,0.06367029077270905,-0.0507705995925979,-0.17797402034790483,-0.1573488870215042
240,0.047664925113605254,-0.02542415636679251,0.03366167640728662,-0.13532400821208052,0.1101798718990299,-0.0013901631960634585,0.04478534841819877,-0.12263747408607215,0.06323349963586053,-0.05089461041336034,-0.1779974343231465,-0.16466317647746764
241,0.051691100021313045,-0.025423062284402387,0.035039759719460155,-0.08935729833484042,0.11013606981700987,-0.0046291151796653135,0.05340796335643669,-0.09488197862278532,0.06642343089794364,-0.05074299230748096,-0.17753258745858513,-0.17306032094592885
242,0.048511245809773444,-0.0254519583675549,0.04277551221901966,-0.07091985620652054,0.11028748859559498,-0.004031497895083955,0.05899193438356463,-0.051781307666887426,0.07184657137905305,-0.05129601225400866,-0.1722225026159987,-0.18208857750112767
243,0.04585799707448418,-0.025209662328019387,0.05001691290570786,0.10053215947315222,0.10982474781917669,-0.004713420181645971,0.0636363681320346,0.1499358997049876,0.07198997342885072,-0.048109500932183184,-0.1690802786617457,-0.17237789891782446
244,0.050067029657654354,-0.026794177988924278,0.051036853287356784,0.24182832790700992,0.11422017631101627,-0.0009527283827212903,0.07422783449693372,0.5013809990946584,0.08138961457653633,-0.04678376675199628,-0.1699192535559071,-0.15021402546218723
245,0.050897422432980524,-0.030131966846526262,0.05064379804095908,0.4921222787032407,0.11438686057735911,0.0001262673992017294,0.09048722010447792,0.9134019622258588,0.084490030816914,-0.042966663767125206,-0.16701604334646267,-0.12410474340949455
246,0.05087471253319095,-0.029437866261955294,0.05498951211445937,1.0066661225449511,0.11424839172324577,-8.01034083376613e-06,0.09866086215640157,0.9341988135549877,0.08754491349179208,-0.04233428458356462,-0.16204486202606208,-0.010970222214567161
247,0.04606631174544686,-0.030127230155531735,0.05934703863206057,0.9946793262985321,0.11569633512691078,-2.0988651810827097e-05,0.11433515503559273,0.8559207560379167,0.09348654577035052,-0.04236409857696786,-0.15723330939185381,0.22767416056167444
248,0.04247643432804805,-0.026126333950244444,0.06047217490564717,1.1006418104661222,0.11753294776700264,0.0001721369263432855,0.1290017429060145,0.39144406334865134,0.09648463823158566,-0.04233534063555627,-0.15262100106029203,0.34021404941314043
249,0.03999787372589125,-0.02535067155616623,0.06999717678689002,1.3114627577621087,0.11377873322618674,-0.00116379399843189,0.13918723696763213,0.670696670779918,0.0914791057162573,-0.042652396528169954,-0.1437075509639944,0.41913249676898745
250,0.03329239724382123,-0.02541927239669782,0.07179931309203047,1.5339613890774229,0.11489246759254106,-0.004788751245088569,0.14613314359218202,1.5934926683710189,0.08878153937460943,-0.040629471855022435,-0.14368522568195,0.5503641436439465
251,0.032082656710206096,-0.025437309391755796,0.0745238601517993,1.7248382986576252,0.11141951215425573,-0.003698062256182902,0.16047217090933785,1.8163850161953023,0.08521982997661097,-0.03776466614513059,-0.13783218206121622,0.6859978301365374
252,0.02836886607256152,-0.025361967161017167,0.07559535544025486,1.9135084598862968,0.10661574966736187,-0.007079578183388231,0.16551220341688194,1.754538408705838,0.07603416165520675,-0.03809735932263569,-0.1360373034092157,0.4920389676921975
253,0.036401792171549104,-0.025750495401133056,0.0832103763859191,1.8580715745395056,0.10175480221005025,-0.008820235242225588,0.1757443924374691,1.6921837019861947,0.07620502764761033,-0.03851298014474127,-0.13089697412613907,0.42195019524604876
254,0.03832297868828775,-0.023459234656264906,0.08408323472836121,1.8474015483217692,0.10155433104029214,-0.008114286814294746,0.18998074006055543,1.649291524960374,0.06861749212551405,-0.03422769709426132,-0.1243708341183661,0.7896516620622935
255,0.0381641728506015,-0.020779405375128963,0.09723530625950423,1.7579262071876982,0.09639824598478161,-0.012711549922333226,0.20486907935035994,1.5847861804476902,0.05484635474934249,-0.03390445079855996,-0.1156622723223658,1.2443268565189434
256,0.03861042013221126,-0.021380084420259644,0.09779148680563575,1.6718118020326018,0.0928862930363569,-0.008177966891677251,0.2143371455861993,1.5166575793906114,0.0488364228813116,-0.03398854306063891,-0.11429267943932295,1.4728173742998314
257,0.04740174215319098,-0.020814395703133703,0.10668125864054263,1.6120773265335004,0.0933857592433751,-0.008626575762993654,0.22115279272767058,1.423848503327608,0.04084111421864688,-0.03300381978263685,-0.11439123991273613,1.5319580209999342
258,0.05503761628939083,-0.02517998831723734,0.10604346222357364,1.5178388228221453,0.09285809242243785,-0.008308716966144476,0.23055956356830198,1.3273859774910515,0.03499948913962701,-0.029202385480709477,-0.1144426156163924,1.5722990168937063
259,0.07297631430869844,-0.02540434569190963,0.1153979987345678,1.43633384564629,0.09571476533636798,-0.009089367944074275,0.24410036691059084,1.271256700165071,0.026247161058234665,-0.02977783286566684,-0.11414762453764163,1.5317359464577676
260,0.07629513785039935,-0.0254101779074267,0.1258914072035112,1.3503931301863406,0.10084581397133272,-0.005166444353010455,0.25406427325005565,1.1514993759662457,0.021161863004687084,-0.029634951062036598,-0.1048722111314564,1.5187778099329738
261,0.0787106370851372,-0.02566007171116195,0.1295261967175839,1.2040891201238284,0.10229939790789637,-0.009848713344268989,0.26370767223311936,1.0862546538499882,0.021315538493722714,-0.029666006420837866,-0.09673052385126181,1.4700407712103565
262,0.08325532018422163,-0.023900415101496493,0.13480158209001916,1.1383874472410667,0.09323440065422477,-0.013246416587640654,0.2782664725716232,0.8920703634165594,0.02042163007634082,-0.02966026724713662,-0.09498826640236692,1.4171732915571096
263,0.09213798165475046,-0.02104649124075343,0.13581752711237025,0.9887054209971486,0.09292098786245263,-0.012439454567267562,0.2911951555035737,0.8462463799331302,0.01524318287405394,-0.029661078164237863,-0.09285284177992008,1.3309359375240426
264,0.09349132579311137,-0.01919752024404504,0.13542580769503662,0.8451135500052056,0.08914458734486493,-0.016985303338180196,0.30021866839205513,0.749710974505415,0.010762644615592263,-0.029661112030575216,-0.09348688178646102,1.2569108143776948
265,0.08444910386133574,-0.013425048505329624,0.14474531674003377,0.7941672825089184,0.08514100483413345,-0.016877797427737505,0.30981897827447313,0.687340030260485,0.005383663301714001,-0.02966014883702449,-0.08909438021517871,1.1638447450784686
266,0.08488413860064341,-0.012950316236629258,0.1535232468401284,0.7160441394338789,0.07444832296989304,-0.016989615409479093,0.31909473233985264,0.5296946557717588,0.0044846825344710545,-0.029666408775160365,-0.08437285073343395,1.0234297970106558
267,0.08489074493632119,-0.008692815876091154,0.1579165231068356,0.592530592486962,0.06279001724625298,-0.016870836901116033,0.32904857328092196,0.37012381634995667,0.0004749677312756275,-0.029633867871146417,-0.07948925934178147,0.9241432091309344
268,0.08346164902628886,-0.008479359858758629,0.16271171415036456,0.4781454437030304,0.048708875043957364,-0.017279749454920525,0.3342147442223119,0.3198001514476221,1.4996754646286626e-05,-0.029779309092979638,-0.07575879064665558,0.8506507795192824
269,0.07818642538241835,-0.00884093288393293,0.16742311327249979,0.34613898362377615,0.03962718044338352,-0.01475010434272543,0.34335310498283894,0.20312992802763385,-0.0049639692918836634,-0.029210031043180637,-0.07714411898183357,0.713073367324069
270,0.07401924556287795,-0.014012108362464545,0.17198105834205837,0.25512184206640454,0.034284969674353905,-0.009789208457235245,0.3524390053395425,0.06768541336137604,-0.01389910325945388,-0.03309816885108346,-0.07143403473563263,0.5653689723256664
271,0.06616444636635868,-0.018073924414619285,0.17722333003709867,0.07878084788384684,0.025069484745438665,-0.0047876775536987975,0.3568732060291568,-0.12797288442603152,-0.018529312111393578,-0.033998453722515684,-0.06708118466896172,0.4501584188456518
272,0.05621447788192527,-0.025775198389123722,0.17784127970987543,-0.06264809753884946,0.011860845086092729,-0.004155732282845528,0.3618020575686091,-0.26095788224265715,-0.021278225997858054,-0.03390816455600903,-0.06829474500540876,0.33514062078451445
273,0.05102151823452683,-0.029816705668051734,0.18189783262339243,-0.1991451995388604,0.005636836973296304,-0.004158731368257193,0.36601038424699384,-0.4201874008772575,-0.02310370087666737,-0.03355688924015553,-0.06376144692028218,0.2655111802716842
274,0.04624698760383443,-0.03280600654473605,0.18653674617157462,-0.3743823480277767,-0.00645243145040389,0.000900435225138095,0.3736717623597833,-0.46709076348971745,-0.028766499070523716,-0.028529075345546898,-0.06349088081347791,0.1592864840785007
275,0.03667475451614201,-0.03373339144156301,0.18636732817255253,-0.4554787036456775,-0.012268850692519897,0.0038052839141924236,0.3805276363037765,-0.6232978997561645,-0.02977668510847916,-0.02387468582579768,-0.05913586899319062,0.030346926635024023
276,0.02740189250677663,-0.037932728380541035,0.1865348856588893,-0.5387415382611438,-0.02015078665497514,-0.0020458434183310043,0.38435070118591796,-0.7821083184024524,-0.029662976121398867,-0.019242182302328034,-0.058415744466828026,-0.1213772338874295
277,0.017728187724750114,-0.03810072577092554,0.1860589300461239,-0.7539213036922064,-0.02326678656433969,-0.004607778875324646,0.3937712560826307,-0.9414167563080924,-0.029696395683983964,-0.01394896879863228,-0.05489690296717234,-0.19871592841324434
278,0.009954600165345733,-0.03816062260484622,0.18864871414563586,-0.907571598590879,-0.03625304395310936,-0.0038540769996782635,0.3941554074009364,-1.0104905675977176,-0.02907405769993797,-0.012840949812152837,-0.05329623826309497,-0.2701081508266342
279,0.0073286896434714595,-0.03812543550095492,0.19054544719550862,-0.9914290256053188,-0.042230142980811576,-0.006950743222043208,0.3987045809832179,-1.030090355146431,-0.025231962831918323,-0.009331005060960552,-0.04873301293405806,-0.34322829272029953
280,-0.008134327332567984,-0.038144867669580744,0.19388733546084475,-1.032166478815466,-0.04691972657679862,-0.012451467465874957,0.39797287697059675,-1.0475937618386433,-0.0240080413304958,-0.004392414372769547,-0.03985347608740694,-0.4048169592179196
281,-0.017031647060410278,-0.038104486686470304,0.19471480828445795,-1.068147375010928,-0.05097734189563114,-0.012509091447381058,0.39965721790596503,-1.052141147703387,-0.020313372534869215,0.0005145010631378799,-0.038200839754816474,-0.5145862312342522
282,-0.01677200134149508,-0.03825807730636882,0.19898033829754447,-1.0818305601155322,-0.051647413473688675,-0.021619809947526596,0.4048276806486611,-1.022617346953882,-0.024073186485797045,0.009748595075593143,-0.03401932568868081,-0.5699405764264741
283,-0.021249927005343408,-0.03770576202654014,0.1992514677503146,-1.0458737715308948,-0.05682785419917106,-0.02616669651279758,0.40928577244211667,-1.0133175206810037,-0.025708641469679966,0.01304568592927172,-0.03400552553312981,-0.5970234684549721
284,-0.021734067409986953,-0.04181080801487124,0.20357960914130982,-1.0217117049294733,-0.061822516754074366,-0.030063045958076247,0.41463263562371505,-0.9496730590207317,-0.025195595939135926,0.012133302284505872,-0.033329962161225864,-0.6281633905004852
285,-0.024931615255697898,-0.04241544862083012,0.20430014540111624,-0.970385341755829,-0.06381660093594185,-0.029452884719090952,0.41499326899793326,-0.9237794773952189,-0.02965717490974847,0.015647987773511375,-0.02817142625149363,-0.6212128896165579
286,-0.020483878654099997,-0.04238292114337377,0.2077566811105237,-0.9164500773162602,-0.06356052419873029,-0.03013584258090468,0.41946798922411777,-0.8073212953157872,-0.03436607279540396,0.013796631664461151,-0.023975177706402687,-0.6072967758753892
287,-0.02186319190047697,-0.04236644564161586,0.20963386978344975,-0.8706376649421613,-0.06343135974831689,-0.026834457958119867,0.41479740952495275,-0.7456725120153413,-0.039318546652546416,0.01621755612172106,-0.01661539403297357,-0.57582848860585
288,-0.018129647377169288,-0.042375480220034394,0.21180488553937907,-0.8212735023701311,-0.0675862637853798,-0.025397563360955694,0.41001061302976344,-0.6889360124418604,-0.042730181637403546,0.01332449498881054,-0.009135216129122518,-0.5531706441391331
289,-0.019775961527679724,-0.042370317644012764,0.21488881191156428,-0.7248096784456028,-0.07661550706387862,-0.022245500803169806,0.4066914103383805,-0.6407776513270314,-0.04228226505092894,0.00841522389321676,-0.0086763477208748,-0.5132873373437246
290,-0.021399378818033287,-0.042381706318075196,0.21625757903067233,-0.6532344408492338,-0.07614725623171337,-0.012889058675344019,0.40514847104673085,-0.5617157654283182,-0.0423886267786527,0.003975481511256049,-0.004741133057240706,-0.49787642108361035
291,-0.021164364931263828,-0.042338368962475434,0.2161339538143437,-0.5901867886367875,-0.07604132149738708,-0.007842413409291185,0.4011507112661002,-0.5159459328149659,-0.04238603959764736,0.004571008330877464,6.574993085619005e-05,-0.4638365010636039
292,-0.021184654571400348,-0.04249251340816313,0.21618264957841724,-0.544506787001502,-0.07800556204874526,0.0005471328205867419,0.3890564149792021,-0.4436306406993803,-0.0423253937749047,0.0026626764349298574,0.004780933614959374,-0.42541592490404556
293,-0.021188312664793485,-0.04204105509528282,0.22060299846121637,-0.5093311872592678,-0.081028641603721,0.0006889657320964521,0.3857695481846272,-0.3988401819856172,-0.04243601057347344,-8.383681427135087e-06,0.009714667038739858,-0.38445690867954274
294,-0.021185731943444936,-0.04649977991942638,0.22041055889908054,-0.42212484948597606,-0.07998023898866025,0.006487192041797086,0.37793132005786045,-0.3882064702319561,-0.04282253562860034,-0.0025323231578966,0.013047091686492922,-0.36361900391004004
295,-0.021186621574857234,-0.0467092945841917,0.21919123089080608,-0.4025236459146606,-0.08392836504291437,0.00878737192867994,0.37280162375779674,-0.35675983932415417,-0.05144170567535349,-0.004511133173683029,0.012737844400223382,-0.3434051366405558
296,-0.021186533606201492,-0.05186687134798682,0.21412836060115328,-0.3763913662870049,-0.08489977099451784,0.00829520073677503,0.3642008342988553,-0.330399578432117,-0.05150335965343016,-0.004198369523823975,0.012252271000106113,-0.3161682199121009
297,-0.021185840916172614,-0.05512962339140068,0.20898901117867763,-0.33836967691477354,-0.08475712278346713,0.008878492789692168,0.36211586678804697,-0.2837340671932936,-0.05744494766943004,-0.004237796380792553,0.015969571632511535,-0.291690071208888
298,-0.021188686562199008,-0.05662993985435432,0.20774739568143935,-0.3245165559244271,-0.08926265172559686,0.004633605459856496,0.3493121875631588,-0.26947642688606505,-0.05928593949277592,-0.004222534096915015,0.01685406350623179,-0.25977017801295743
299,-0.021179461012089743,-0.059768847500288665,0.20443273275574902,-0.2974491128776691,-0.0886559458336685,0.004229377563188308,0.3443479970822709,-0.2479421382492275,-0.06171147429243015,-0.004406452356097911,0.020915837962013774,-0.24218622330419304
300,-0.021201380189586966,-0.05919752775615803,0.1995309768378608,-0.26838874831256193,-0.09044734991724883,0.00397675746641628,0.33187651935318474,-0.2342797778840016,-0.06742443910626762,-0.0030527325382600262,0.025550751589588454,-0.23271021853773668
301,-0.021198035991736107,-0.059438452772988745,0.19484827411866862,-0.2455977617137823,-0.09333478148678101,-0.0012109300836207417,0.31654042437759267,-0.22548824318518193,-0.0674882842423316,0.00042478203747174225,0.02522581053609482,-0.21902973189254493
302,-0.020789528512715733,-0.05905346850550577,0.19009046768275667,-0.23161440570030345,-0.0952639932312022,-0.004320257956056974,0.3100579165716893,-0.21597782830630388,-0.0764911326337586,1.12305670894737e-05,0.026391632802965203,-0.20773201906420086
303,-0.016488287606032413,-0.0634117355521921,0.18586324913722246,-0.2125659974545158,-0.10046647899034594,-0.005735331838760745,0.3015755871345213,-0.21029425243534744,-0.08063433330529718,-0.00042957688159329477,0.03145318583154727,-0.19049359021051113
304,-0.017407012999016504,-0.06312154721492073,0.17806297671976262,-0.2071821827174355,-0.10509109870663434,-0.010796431271096914,0.28742125135889696,-0.19745351217517035,-0.08052341815402556,0.003444087244265874,0.036460740250393045,-0.1837300198726541
305,-0.014929406047212568,-0.053722126863453463,0.16653988095491756,-0.19406554757855646,-0.10983861848045119,-0.016160286858480286,0.27449094632518073,-0.19170960491666444,-0.08016854309795794,0.004327695984894628,0.03851976440480752,-0.18241479430851715
306,-0.012733113320369568,-0.05085689929314537,0.1636404949505652,-0.19439784633809531,-0.11456663385295182,-0.01630958363181169,0.2682396881738188,-0.18562884432597548,-0.08266796220217822,0.0042429033216440015,0.037671694063246164,-0.17892640475866195
307,-0.00999612959188535,-0.04949293708210418,0.15469325643798698,-0.18889382155218318,-0.11900758185166108,-0.02488278184273651,0.2547862181737805,-0.18658566249517816,-0.08499977291767374,0.004117888057383088,0.042071073827682944,-0.177850976789518
308,-0.0076912566218422995,-0.04441349759128291,0.1525041130789268,-0.18395750661529064,-0.11760912100508436,-0.025461858032130535,0.24409575005510886,-0.18651959475622543,-0.08498710650086473,0.005165321657002288,0.04237761158916232,-0.1779677121088567
309,-0.015866772368188616,-0.03921845539579792,0.1488695611362945,-0.1820445192477081,-0.11337055808874892,-0.029441463879688858,0.22884648950040726,-0.1861586142197175,-0.08125561443653671,0.008859419954789373,0.04716529834877823,-0.1779460011670197
310,-0.02544105318519742,-0.03836594472051298,0.14405528382139993,-0.1818428964229481,-0.09056462486605228,-0.025796523222759698,0.21822927724290117,-0.190626560923372,-0.06829220798886347,0.00868902864284261,0.05203338343294015,-0.17817560000857896
311,-0.030433615924610795,-0.0343777958134806,0.1393029275792136,-0.18594376678499341,-0.07226729305134556,-0.030183028755588356,0.20861739603823115,-0.19061147067955,-0.031592128311093544,0.0062272265607720215,0.055210894988285325,-0.17656549831792803
312,-0.039675203695776796,-0.03388114889500606,0.1349954733580656,-0.1864767886329109,-0.042273232268924,-0.02993884100500143,0.19963156102876528,-0.19075785321613611,-0.010471283138313138,0.0011317561190986823,0.056575680357766875,-0.17340731353740219
313,-0.0522503032134697,-0.03395206688858597,0.1276900043227712,-0.18664454945519512,-0.027538828911754132,-0.02704582982891466,0.17683890394978896,-0.190364010637522,0.034713322581209495,-0.0035618949124277136,0.06217216675480893,-0.17334030534386857
314,-0.06690877157299473,-0.03321977225177174,0.11393638071239731,-0.19179700974546404,0.006682600169809724,-0.025528683015085228,0.17328075777938115,-0.19256406620611477,0.08871597831522823,-0.008264897413201628,0.06410720702269915,-0.17696983958235873
315,-0.08415742641557347,-0.029235346926875627,0.10811815635938926,-0.19493322979301814,0.04020873087418228,-0.02203518279146428,0.15834682839844927,-0.19541168185551855,0.11226076497977092,-0.012844905690565976,0.06014819841110887,-0.17778590390135374
316,-0.0965639950193246,-0.029682124825965217,0.10016469464842478,-0.19670796145780417,0.09768023204565478,-0.017466963648607628,0.14114757815907733,-0.19440813079573288,0.17450039661681238,-0.012678396502725366,0.05537714897592714,-0.1820484237435652
317,-0.10660363688350587,-0.030071451299142835,0.0942687122174022,-0.1991357935377568,0.16953157509364336,-0.008323971418398026,0.13478800900875743,-0.1985093521206101,0.34469399748668733,-0.01247390618414525,0.050770645128798385,-0.18215540808100578
318,-0.12460154916331731,-0.026833430824135092,0.0859117392469691,-0.201954873916912,0.2433481148055601,-0.008113286742957353,0.1322565650625857,-0.1992433374108764,0.4029222663337383,-0.014355444826984854,0.05049615891859941,-0.18223086205559585
319,-0.15231676348438491,-0.025202451200346226,0.07633289329395185,-0.20370846987807767,0.3511318552477131,-0.0037590722548832534,0.11855848512810951,-0.19932385864941607,0.5126862391779464,-0.017795580327267524,0.044990153155375266,-0.18219421394473836
320,-0.17058600083136383,-0.025452340697051046,0.07175728827891918,-0.203128703752113,0.4446067946282216,-0.004375597118446917,0.10298159788193484,-0.20372420160240812,0.5802835386400891,-0.013947740349030228,0.04240559113694059,-0.1822058847245534
321,-0.17957176634024186,-0.025423663271037338,0.06596119841774674,-0.20764994457327,0.5408054884058431,-0.004202548170916333,0.08890255432637945,-0.20325409383671794,0.728257730151881,-0.012528058518720131,0.04025076888466331,-0.18220280190557145
322,-0.19911706947279434,-0.02544310550579431,0.05875886116315783,-0.20755691432972642,0.6485450385756558,-0.004244990078265432,0.08455073449469594,-0.2035285235929167,0.8680874984397711,-0.012733250084886585,0.037666805499000526,-0.1822035097155045
323,-0.21950129610855793,-0.025240392986747656,0.058074793131206594,-0.20765967527356072,0.7092506614115505,-0.004235851947415085,0.07771051797460733,-0.2029106971111481,0.9748594219980443,-0.01271279077833289,0.03860600757680229,-0.18220336987334296
324,-0.22473687673203413,-0.02664933382654748,0.052662350840057395,-0.20759513193476156,0.929959631234856,-0.004237389026738466,0.06539733016895671,-0.20638152294004614,1.0803700544318047,-0.01270241254344902,0.03429407079900473,-0.18220339202792027
325,-0.22972177867597046,-0.030086849649050222,0.04813743036874639,-0.20773963171131227,1.0131415807912356,-0.004237446194107416,0.06180347792712578,-0.20743864948441498,1.174326130770021,-0.012773389459402828,0.03389288046599823,-0.18220339020641407
326,-0.22608092497076704,-0.029663424981928036,0.0433630314647735,-0.2071701880113882,1.0852704695473256,-0.004238264424432515,0.05677202052512884,-0.21149341587077708,1.2317508520094067,-0.012375865708067571,0.03395315527126215,-0.1822033852602491
327,-0.21701716830207612,-0.029261805729247355,0.03877056115425936,-0.21073466497776144,1.1453968511184196,-0.00422591047091704,0.052189676679314456,-0.21185711813340632,1.2842677272527516,-0.014759741143268477,0.03325345312084463,-0.18220342106240148
328,-0.21199459640818857,-0.03294289093717538,0.033935423901249095,-0.21200186708372623,1.1685445694765746,-0.004310002524908369,0.0472021632686194,-0.21188542702024896,1.3348349122225303,-0.017310182652270203,0.028177344054664752,-0.18220322327197827
329,-0.2026962917486659,-0.03426029196333376,0.03372986887603287,-0.21189353986152035,1.221796006055036,-0.003865371634876844,0.0429910463877055,-0.21185594391436718,1.4178190602681588,-0.016872574076873342,0.023222757367678593,-0.1822041450745948
330,-0.19229767684157575,-0.029689248016250412,0.028719184961398216,-0.2119966659395022,1.2640889348884825,-0.0064775406461377825,0.029231873847667955,-0.2118669617102971,1.4492911450564636,-0.01698227843749842,0.020750162904343422,-0.18220040626074985
331,-0.18113566613362,-0.029795203792127613,0.024215199098010398,-0.21642441035088275,1.2815021880654596,-0.008687598677779764,0.024948198464940473,-0.21186361150929087,1.4326235553747926,-0.016919548545556384,0.021725018102047404,-0.1822133952945213
332,-0.1821082269804836,-0.028932596786437104,0.01912080651358543,-0.21598627787392013,1.23282959757131,-0.008829443352075386,0.0196976673362006,-0.21186518194184267,1.3942224108436438,-0.01672335853711274,0.017499482253473718,-0.1821786370255088
333,-0.18453790516899854,-0.024670779542786903,0.016617394372677962,-0.21613410352665088,1.2276380278707577,-0.004702592629809334,0.01688760616575917,-0.2118621648378502,1.359755791822381,-0.012364445172175447,0.017077796320770222,-0.18221059605276851
334,-0.1850695160969612,-0.027412138549055592,0.017054250463881475,-0.21609595126582914,1.1405785104130555,-0.004221419331855619,0.015213490117397005,-0.2118704508859866,1.3238552942963717,-0.012763651554764334,0.012630772104445485,-0.18265216742467671
335,-0.17125357139164454,-0.029765760630806957,0.01681643827658126,-0.2160938844854896,1.0905177593607174,-0.004293006088862416,0.009990840146874654,-0.2118578511172045,1.257825158580008,-0.013016366814996584,0.012277246693493688,-0.18600244662603227
336,-0.1394043057396519,-0.031814994603534104,0.01727145972264918,-0.21613424064847664,1.0478265451512778,-0.0035455113367978664,0.0053313527285310715,-0.21179661508710243,1.1437071036557869,-0.010569949003140545,0.007960261770699925,-0.18162661342328135
337,-0.1191813914143052,-0.040270103469593185,0.012786520625453445,-0.21601406186650235,0.9856968787255567,0.00044949720195319715,0.0007044509684349099,-0.21257716153534445,1.0823959490181116,-0.0061870635124896475,0.008884844351617412,-0.18235220130497742
338,-0.10055483021616016,-0.050099011861502896,0.01251851136111556,-0.2161883330842659,0.9016978781542125,-0.0001294458272242573,-0.004189853761144006,-0.21652868830785696,0.9223185542512172,0.002950059339567988,0.00662332578833769,-0.1821699500876829
339,-0.07298532171811555,-0.05507842258874068,0.008259533847931676,-0.21175679924025695,0.8006257361010877,6.273201542288532e-05,-0.004466161019380039,-0.2160863646678909,0.8495934856485026,0.004104178304246464,0.0014743662855069334,-0.182209821164239
340,-0.023528484396848653,-0.05968152380522197,0.007508643947310079,-0.21108824330450135,0.7268000668325695,-0.00013479641854267699,-0.008734314591575636,-0.21568106137847554,0.764516300206568,0.012924074549639755,-0.0029978443285377733,-0.1822024026982787
341,-0.0026233359510344917,-0.06553198869267622,0.0036416380573060106,-0.2083641630638788,0.6870967955493648,0.00042109941590183324,-0.009252700605661579,-0.2190970364279928,0.6900496679820122,0.026455216482346687,-0.0082542658731905,-0.18220349625876894
342,0.024203323334770436,-0.07236903214939856,0.004822966053416566,-0.21241723018882747,0.5515371828670478,-0.003917456693940495,-0.015046459987422635,-0.22052094326875882,0.5252839966186769,0.030512083293591646,-0.008382944761551934,-0.1822037062068536
343,0.06506525756393386,-0.07485463266738426,0.0013522866529604794,-0.21184706241735435,0.4902961604886876,-0.004231496827435144,-0.01688536813125961,-0.220317364546311,0.42742822637206085,0.03569658262500292,-0.017598324231972697,-0.18220014763649836
344,0.08995080121465121,-0.08565484959504716,0.00020884731883149144,-0.2114342826490699,0.37311246796056385,-0.008975614254526537,-0.01943645361535627,-0.22032904617522228,0.3518617390601934,0.03934604973374054,-0.02215713616743708,-0.18222361803170095
345,0.10332826256413281,-0.09261532306655515,-0.00374252653321406,-0.21531557684948635,0.2252009389032284,-0.01389202803404892,-0.024548908156689413,-0.22048382127494892,0.23123956848221724,0.050217506467934984,-0.02549691509571023,-0.1821019726408844
346,0.12618463220150228,-0.09257415631202878,-0.004181254343110752,-0.2161470933424574,0.2007074830464861,-0.016714969693515793,-0.029142558209823505,-0.21925720590067194,0.07614130703592169,0.05864350149544297,-0.027268108400672682,-0.1826416564111898
347,0.14027869674838964,-0.10101852388351332,-0.008764789666247014,-0.21609052230903938,-0.10959421593766575,-0.02051073108042849,-0.03391163702859674,-0.2159076790040064,-0.2003220517852502,0.06283076433256378,-0.02962552508341746,-0.17926410667522003
348,0.1443060804407945,-0.10168340685201407,-0.013570629331308579,-0.21118022079253895,-0.2621094342709034,-0.027347262420153277,-0.03384356577887109,-0.21445346213564323,-0.28915398557227007,0.067591240309839,-0.03257498482072991,-0.17768193391707174
349,0.14347820981547835,-0.10180664241862658,-0.01704108183269185,-0.2075486212685041,-0.29448384471311667,-0.038647001644311965,-0.03391949028830854,-0.2087231254107497,-0.38575724419830465,0.07211224278397825,-0.03409440067507013,-0.17818268059658587
350,0.13619650993812724,-0.10105198236464466,-0.018424478393391296,-0.20633374925962533,-0.37675806008071655,-0.043311216342170084,-0.033899318288719574,-0.20746741703449403,-0.4487809505052802,0.07265171763070913,-0.03387782671392181,-0.17364347463987612
351,0.13081387316670506,-0.09568554033090701,-0.021639052056129565,-0.2028977223929343,-0.4866848288652144,-0.03831105979524304,-0.033862890038448834,-0.2076480854206425,-0.5031108956891511,0.07658308908268113,-0.03389674017584037,-0.1738458835427126
352,0.12976175374525611,-0.09278703330354482,-0.021076930820157446,-0.2036169791129765,-0.4671006354587984,-0.03809275879975722,-0.03405220779091882,-0.20762670822285292,-0.5256372149174999,0.0769349743983243,-0.03389998171597903,-0.17344898211885595
353,0.12047702007584528,-0.09374511118223365,-0.021238472250634483,-0.20292786623500708,-0.5299658981495989,-0.03360673872992503,-0.03333859583294274,-0.20761942817604648,-0.5468220729837111,0.07148756463160999,-0.03389758904117022,-0.17532565159563754
354,0.11832839876743113,-0.0902095871246936,-0.021089578070643048,-0.20698766780655964,-0.7621993776614047,-0.03398600180141084,-0.037846451558530246,-0.20768435743942873,-0.8441416198253822,0.06761295903545055,-0.03389897400977879,-0.17839312632621168
355,0.11876820223880027,-0.08877955372126242,-0.021341142099996286,-0.20768348811552143,-0.8628993635007957,-0.03401813700919764,-0.03416590167558677,-0.2073005948480035,-0.9621510210807577,0.06448361448794324,-0.03389602984864609,-0.1778353504079863
356,0.11413019251761032,-0.08904704102065708,-0.016856814008053184,-0.20763428367769818,-0.8373659287535822,-0.03273498003304565,-0.03392640335166685,-0.20962077406241605,-0.9107927302193574,0.06337451705057492,-0.033907271419498224,-0.1781213865029523
357,0.11018219973267121,-0.08901665809832941,-0.01663847325346849,-0.20763092132134298,-0.8209459265489947,-0.024207621416897366,-0.03400755765712956,-0.21211274519356327,-0.8936986510787204,0.06348699279367204,-0.03386725922790345,-0.17762269999897037
358,0.10844769567734773,-0.09388923699974015,-0.011280247629780435,-0.20756240914877136,-0.7843262451510788,-0.020598655197896717,-0.03288565012743352,-0.2122299850749292,-0.8629100159588926,0.05983170748668702,-0.03398239411541742,-0.1822034264512755
359,0.09955901467451082,-0.09787056204591739,-0.008055013797132438,-0.2079783052802101,-0.7520916185282845,-0.0216009748127182,-0.029194604316219036,-0.20822407948441762,-0.8352252947621632,0.0694750665709198,-0.03380764765942227,-0.17767729879187844
360,0.09534191866089496,-0.09672356955409665,-0.008984484662499658,-0.20549074035280446,-0.7258090798695849,-0.0171763402280073,-0.029805889825577487,-0.20758675624721853,-0.7916923020014541,0.0734146235135518,-0.03830732193302681,-0.17787470509331704
361,0.09145074572937271,-0.10136133462309192,-0.005819843270702578,-0.20301192575978563,-0.6644746796917667,-0.0170317342490489,-0.029513671257856627,-0.20762859228803104,-0.7084603593344859,0.078412513589989,-0.03821437871561879,-0.17941009765189672
362,0.08015588581338373,-0.10668459300462553,-0.004089557218750988,-0.20356668332120278,-0.6169193752647617,-0.022546010659575264,-0.0300868625457883,-0.20748236382349636,-0.6759563447870502,0.08294286113049382,-0.03695458529311108,-0.18224458849005024
363,0.06893221485545022,-0.1057818553737696,-0.0039319268333243545,-0.20307881923071255,-0.5626038494951074,-0.03022901033370857,-0.025916171330222244,-0.20871076933902494,-0.6093626439697999,0.088232933545088,-0.033438974841480416,-0.18467072752771158
364,0.06374478809817447,-0.10595234263926526,-0.008248281459663769,-0.20753050020086128,-0.5023667301895912,-0.030612430658144844,-0.02539809881476407,-0.21269613761578743,-0.5472535587788951,0.08886095687632364,-0.03400707070652563,-0.18680574341153058
365,0.05894679481635248,-0.10594003273856507,-0.008449246311043825,-0.2075589836649601,-0.4824373399543151,-0.03659916753674601,-0.025408788736838342,-0.20942578982274956,-0.5052612608796607,0.09298788439694293,-0.03387529330773182,-0.1861611968193215
366,0.045639669416984364,-0.10594566516296293,-0.008505425472990073,-0.20782770357863362,-0.4569235790101268,-0.0379184766482142,-0.025444167637278484,-0.20733096373276258,-0.4584547398415837,0.09756813472278804,-0.03390406620296898,-0.19043980405767214
367,0.039697308251127654,-0.10560181524082599,-0.008404162372538108,-0.2064236045730873,-0.39701384675538026,-0.04132215703633914,-0.025339307296681653,-0.20770376549049815,-0.4303042244152267,0.09757016313929709,-0.03389363885074797,-0.19504522752379283
368,0.0268102081566888,-0.10037767433496944,-0.008810244619295582,-0.20292537580904946,-0.33044874887375975,-0.042452339363907236,-0.025833066838222618,-0.2075616654897365,-0.3859876129702068,0.09622578853322074,-0.0338950163793687,-0.19484723968367165
369,0.025621813985744077,-0.09710700768569284,-0.006481700341446957,-0.20356224054395028,-0.31136518132154906,-0.042456502955365696,-0.02297446818930109,-0.20757097081404913,-0.3382895483767609,0.09306527778886259,-0.034010027415429384,-0.19491705980652774
370,0.023400101414924553,-0.09762204993883095,-0.003864113248650052,-0.20311841523924692,-0.27318666308070855,-0.03782487716918367,-0.021315519291282236,-0.20310962392517654,-0.3050371672781354,0.0913248265852117,-0.03299766202624227,-0.19501791937255122
371,0.01768265977503511,-0.09711436276420998,-0.004312573678716698,-0.20419914285379626,-0.2609379858077882,-0.0331167922977854,-0.017850525754955802,-0.20343757548911728,-0.2745626703618002,0.08608627191413014,-0.029116944826184932,-0.19444678805239396
372,0.017280307567834826,-0.10007261273696443,-0.004224311493640955,-0.1955728847925469,-0.2487411005267771,-0.028684357773134928,-0.016768022761637184,-0.20370583577711016,-0.26512226288156426,0.08142577718077032,-0.030184497032482115,-0.19798175202948817
373,0.012795773171580198,-0.10553655626508848,-0.00423959194810201,-0.19491327081171608,-0.23372045767776636,-0.022029482903772112,-0.01693481369948876,-0.2012711891409312,-0.2460369052156391,0.07673785687979151,-0.0270536964356022,-0.1990753741184317
374,0.017030668663646123,-0.10579544775221678,-0.004238529006725567,-0.1899730629505582,-0.20679493374744473,-0.01441376697234107,-0.012813580299647092,-0.19889164561187483,-0.22461672356394355,0.07199513230397045,-0.02502361816470968,-0.2028964501918292
375,0.01673791199725275,-0.11025910927807174,-0.00420903189141324,-0.18639195543763107,-0.19962653669769928,-0.009780666086945044,-0.017669975786014248,-0.19890982218972106,-0.20771753874088258,0.07217664712279055,-0.02587568141776892,-0.20764433971904922
376,0.01788353605652053,-0.11008541949707594,-0.004441677113638938,-0.18505666066631885,-0.181491667054676,-0.008189413872458381,-0.015394047970101679,-0.20260374973126904,-0.1955833489275725,0.07132549197738682,-0.021202451188440215,-0.20847337382874545
377,0.021543745963144047,-0.11019970691550021,-0.0029342587234196696,-0.18217610611906884,-0.17244239293235122,-0.008730480228520228,-0.012428268832984115,-0.2075765126606226,-0.19084281776564674,0.06580266188436364,-0.025615583198869498,-0.21801647239340854
378,0.021475670003667173,-0.11016721588094222,0.0008409014607259681,-0.17966926914136516,-0.16373142144120117,-0.004354796983031485,-0.012316011807027055,-0.20761210259137095,-0.1815130851840242,0.06355292956457162,-0.025469055190256527,-0.22052181538643226
379,0.018736525918375317,-0.11013973668229317,-0.0025554546221598735,-0.17810118112064666,-0.1590996207359443,0.000384648596442697,-0.015894928849707342,-0.20740235275008181,-0.17792439434913307,0.0614243095643547,-0.024310538507009146,-0.2203907777362012
380,0.016651323222103002,-0.11030000273254802,-0.004596392923636287,-0.17445035554354463,-0.15683788586705313,0.00492685070349074,-0.01674604949276834,-0.209233531928339,-0.1769531809817139,0.05590337001752434,-0.020722293292335263,-0.21994846034189355
381,0.0170002125288972,-0.10969965817207387,-0.003915322140194257,-0.1736277319943532,-0.15417058285261787,0.010989626872533926,-0.020982318596098344,-0.21035925095470215,-0.17181742916781867,0.054840229050000126,-0.021297174728583695,-0.22350704048762132
382,0.016943084645628537,-0.11387928764156757,-0.0079480511960307,-0.1736240565542932,-0.15217370174552944,0.019420659565566392,-0.0212438074863549,-0.2074625255034209,-0.1666216854916771,0.055266021725605755,-0.02116544470394039,-0.22797849771719958
383,0.016948968838090772,-0.11429172036571916,-0.012732242650538907,-0.16880258590278777,-0.15288363817829162,0.022527156789157975,-0.026293822500879877,-0.2051500720938906,-0.16546747216687124,0.046007386265760994,-0.021182891156120258,-0.23727432247930963
384,0.0169514703151908,-0.11874263303082412,-0.012653529938845538,-0.16387727937689303,-0.14840327218970698,0.033898383204831746,-0.029915499319953753,-0.19952984400309873,-0.1617178631912351,0.042339118088891854,-0.02120372664184054,-0.23745849136938618
385,0.01693403836498477,-0.1187965217105915,-0.01278806272491081,-0.1609099186832736,-0.14835313986213725,0.042213491414658556,-0.029830936181290776,-0.19928488745807924,-0.16094782078424172,0.04146353543260796,-0.021189348637596153,-0.2426859595262914
386,0.017032985370679512,-0.12534984390491988,-0.01239595790187125,-0.1593937745147497,-0.1482839519321114,0.0421835046693278,-0.02797935773734096,-0.19480335535132176,-0.1609804812449921,0.03616838093642618,-0.020797779403383676,-0.2471234020052807
387,0.016550467250036633,-0.131942770616358,-0.014570127114038399,-0.15374228315084634,-0.1482877044410333,0.04660344056435407,-0.02235738548306443,-0.19482243512907818,-0.16144576850483722,0.03175516388435388,-0.016558008389221036,-0.25255654409979955
388,0.019370782449883106,-0.1320480212745518,-0.017372289530001403,-0.15224602462739606,-0.14843140060210047,0.04582162788323063,-0.021039926220897006,-0.1962241170137367,-0.16674490288103103,0.02626390879442937,-0.01700925428016528,-0.2537091879747769
389,0.021458012479453368,-0.12594747254182165,-0.016746979931495546,-0.15289793004991747,-0.14774569636640456,0.03747088466911174,-0.021128872243960706,-0.1979675375897773,-0.16993063272728876,0.025957361581106203,-0.01720986917179077,-0.2601863111894068
390,0.02123707344402078,-0.12302655534606714,-0.0173518651354336,-0.14838016332781834,-0.15162760967389313,0.03768669698948366,-0.021276802844498406,-0.19438963289055666,-0.16894205736874784,0.01776182155396892,-0.014885138915595458,-0.2664647108028979
391,0.020947674308549512,-0.11621636447005745,-0.013065181222204144,-0.14809515356854222,-0.1493591014380876,0.029518251325822618,-0.01677319717831558,-0.19502847528347417,-0.1724643509504703,0.012650745916987945,-0.009196037115252678,-0.2709650143371222
392,0.025417222530912244,-0.10638420686253626,-0.012710145639264446,-0.1438639972981369,-0.14817794104376333,0.025213095131516733,-0.01695128827566098,-0.1948881559427975,-0.17353861442318333,0.007851677208361064,-0.008719016125484712,-0.27549505748950104
393,0.025361089413693545,-0.09687984423619825,-0.012696546623482286,-0.1429469520194949,-0.148306269247236,0.022577427330469642,-0.017500213645839077,-0.19493551892367325,-0.17756756639860893,0.0033224572292933022,-0.0043992465052499164,-0.2760895446678591
394,0.025441542745137616,-0.08289495387968557,-0.012706034087538984,-0.13965059449890962,-0.14831097010001368,0.02089940738294842,-0.013395494014766921,-0.19491696890297558,-0.17796425809370883,-0.002618343965849994,-0.004160631946719799,-0.279815449558547
395,0.025471818364093582,-0.07510976506913764,-0.012785208716898139,-0.13794378625570244,-0.1483025325109804,0.021378665430958278,-0.007983274320476423,-0.19453209989832532,-0.17798621230784442,-0.01351077514872117,0.0010210756654017955,-0.28146900498439814
396,0.02515157347203773,-0.06876492085510938,-0.012346795960810585,-0.13284273480277062,-0.14830587501909698,0.01685168047785708,-0.006236241755927129,-0.19021603938740417,-0.17795774424190794,-0.016934327913619093,0.004073863217186385,-0.2837756424702297
397,0.027286600703975504,-0.047778334744783,-0.014965080291988965,-0.127718286619927,-0.14830488659370095,0.012026451555411655,-0.0005004850773589954,-0.191122469848273,-0.17796873663375604,-0.020406325540606597,0.007161516394076007,-0.28716570730351176
398,0.03302045573516935,-0.03469615883739424,-0.017629097264253532,-0.1272182573694125,-0.1483050885137861,0.008404763779033248,-0.00013358613821571295,-0.18866251651846802,-0.17796489916546304,-0.020373441470472754,0.015483120363953821,-0.287228787628389
399,0.03353928848061476,-0.02816478656258815,-0.013793837508785194,-0.12287217192657697,-0.14830524031144598,0.00695069107458007,0.0042449474696982376,-0.18595362311293315,-0.17796853679714142,-0.033565841397093114,0.019431792293190468,-0.30007129578987674
400,0.0379987523069504,-0.01836656670308131,-0.009045090579532556,-0.1185673467587267,-0.14830457481246861,0.004630353366969993,0.009029968694736847,-0.18697348706253278,-0.17795797804010324,-0.03393336932956812,0.024815496521378225,-0.300744265278486
401,0.033941397138438294,-0.008785372747881437,-0.004270989914497505,-0.11782932637193419,-0.14830613278826266,-0.0009094889555540139,0.013028785933148367,-0.1826462866172276,-0.17798866163166502,-0.03913149245927812,0.025308728173434082,-0.3013473645956625
402,0.033679161177090244,-0.003834603570228451,-0.0042887364994929145,-0.11424242913709609,-0.14830646502999006,-0.004384879259313367,0.012636447882618487,-0.1822870878512686,-0.17793798317014167,-0.04357594695947687,0.029612382431845104,-0.30627532449159633
403,0.0292549278800432,0.00528835302717832,-0.004166261413617372,-0.11262265636604432,-0.1482729558214941,-0.0076918757179737845,0.012628901182644063,-0.17784452806083914,-0.17774187161594815,-0.04880795689157325,0.03406937635710688,-0.31128554551104676
404,0.02979538574680557,0.009766298082183439,-0.0045374878931950715,-0.10966441373927913,-0.1485366865785835,-0.008654627776166815,0.013158780091227005,-0.1773041565751656,-0.1733070623043567,-0.050917713359300454,0.03382312105114781,-0.31385475860595574
405,0.029605955522227122,0.013080629195899526,-0.0024719819185807534,-0.11061048596600755,-0.1468358019625957,-0.003997788324955101,0.009647736194124503,-0.1737856873410048,-0.1742199448606878,-0.052945576856701794,0.033921527698667936,-0.3136341104447671
406,0.029754427762236524,0.012729350056125677,0.0002915048859299002,-0.10683174012640714,-0.14363385108400412,0.00012173691934229754,0.008304285432902474,-0.17048328486958536,-0.1714933523722107,-0.06182587654596036,0.03389274779576829,-0.3130899858915233
407,0.029331479184962886,0.012276495599314909,0.000359361933549095,-0.10206502932602896,-0.14416742007951897,0.0007894229129547023,0.008491884528459543,-0.16284687773241452,-0.17161114999234078,-0.06767559519135101,0.03389737717158146,-0.3175929955625112
408,0.03256734746187295,0.01595319435881369,-0.003289366388137114,-0.09742987116031397,-0.1440405318855494,0.005687844137620407,0.00847862805468723,-0.15530646631797446,-0.17364968456575136,-0.06783115456571547,0.03390655290406007,-0.31356436516712044
409,0.037853551913110045,0.0170846098435597,-0.004434038842916774,-0.09664332275397156,-0.14409483781526886,0.012476090096494984,0.00843711792684103,-0.1489739814149128,-0.17719708319837502,-0.07269427601738973,0.0338727507766951,-0.3092574300980471
410,0.038104005927113854,0.016939747179414343,-0.004159855007481084,-0.08700652024121196,-0.14402959484174035,0.020713789677849752,0.008721627015347407,-0.1444854331298243,-0.17799089476127455,-0.0772569612269597,0.03394476726747471,-0.3084848743131685
411,0.042890575201585755,0.01694283322116886,-0.008660258056578064,-0.08507084743873061,-0.1439029122494176,0.018125496794605664,0.006926374801914597,-0.13973449999906679,-0.17788666399710928,-0.08245098043015772,0.034022894575703594,-0.30484107473137034
412,0.04616992474360783,0.016985216693780163,-0.00838091107249927,-0.08132614631640393,-0.13950065377235363,0.016706513480712743,0.0038145334273833333,-0.1342874933019202,-0.17340860871271643,-0.08467063073840418,0.03845450639647779,-0.30363761707884496
413,0.042055181722549066,0.016733092229801693,-0.00850417036654102,-0.07049989922246895,-0.13992918669021406,0.01707296374816777,0.004319733208078339,-0.1268693699961332,-0.17391100789054328,-0.08729293682480592,0.038020766564214374,-0.2977117877441705
414,0.04118605060944464,0.01832555747563314,-0.008473122784508465,-0.06465494765748482,-0.1398876101482758,0.01255330201070013,0.004258119219505432,-0.12411619540902308,-0.17334118482700914,-0.08936253537013997,0.0381678337060695,-0.2968910658677121
415,0.03558902331346239,0.023382926209448658,-0.00844539342440949,-0.059671165059526306,-0.13943724024375384,0.012805060355011257,0.004134907536015502,-0.11817795828710359,-0.17590205883697463,-0.0886304282764553,0.03812988868013697,-0.29284577776445925
416,0.03316973232392095,0.02839779861058562,-0.00859662648884905,-0.0593919365726436,-0.14246279034568968,0.012665790160630262,0.00435896387058742,-0.11607966141328967,-0.17827178295223922,-0.09310971834320099,0.03812792686464951,-0.2924466006350844
417,0.0373335249658812,0.029964519562465184,-0.008055468777229964,-0.054876335717122096,-0.14471795764863965,0.01279813262951055,4.813489839112649e-05,-0.11417400723664108,-0.17801458199129358,-0.09316747947192643,0.03816723096909885,-0.2879870537765724
418,0.037952918950320005,0.029327788279783072,-0.012214241018578268,-0.05536893010424727,-0.140267597132242,0.012366587439605127,0.004737707748736811,-0.11435746579320921,-0.17769484595618623,-0.09329525965964053,0.038052922316725725,-0.28767426899314585
419,0.042248060967470295,0.03380864475237913,-0.01274123714258041,-0.05380129242574968,-0.13980953901400048,0.015144757843068405,0.0038024261608273166,-0.11445047311806689,-0.18215992863506095,-0.09290740337370129,0.038195517085987035,-0.2824640786151193
420,0.04232895530990409,0.03391743905552115,-0.01270890980066773,-0.05077550219391075,-0.13979840323805426,0.0201854381218746,0.0060226146110080175,-0.11008237268795462,-0.18210137236765625,-0.09508198041795639,0.03376097565515593,-0.27757181591305313
421,0.042368322713413085,0.033222108479723185,-0.012862398936070557,-0.04867521570171701,-0.14001636574876708,0.024815679904300822,0.008820035368644785,-0.10891205871538692,-0.18257704041714704,-0.09749655351384186,0.03325120648759997,-0.2748925665425848
422,0.042557271677269165,0.029489878924831348,-0.011627188661312552,-0.046152922433217204,-0.13861383578394074,0.029585088687590418,0.008580951040685302,-0.09922852798964439,-0.17984045162127887,-0.09998658943956021,0.029172212226376584,-0.2762882769970902
423,0.041124587653006424,0.028088553067783822,-0.0080196871047926,-0.04705330269520066,-0.13515000580103995,0.03462596516491615,0.007871540021594025,-0.09815100421816529,-0.1708418064588764,-0.10499351815296247,0.029819946758448082,-0.26861741802019656
424,0.035558486533184275,0.025013748397528908,-0.00857952748325928,-0.04276742971300517,-0.13566857186332684,0.04303586105306027,0.012864191711432334,-0.09211721110964423,-0.16964002547516085,-0.10992281326843087,0.02950125991744487,-0.26297511516576755
425,0.033635005942952836,0.025394250335362856,-0.00848236561971827,-0.04237128952085251,-0.13569220149434813,0.04217300886535624,0.004241558850741111,-0.08964389072572779,-0.1668978406856951,-0.11015816892146475,0.030149791532340143,-0.2583017898331383
426,0.03397786490014909,0.025825505192876685,-0.008365072425787658,-0.04170481564014988,-0.1352044334541428,0.04235981828819606,0.00399944259141898,-0.07850398039444201,-0.16137907223336792,-0.11018814576385186,0.026027214492474877,-0.2534128312548235
427,0.03380414408397891,0.021618377032142404,-0.008797038371382368,-0.03243916652520155,-0.13947491011625418,0.04266453910631679,-0.00025252006583424165,-0.07213983861414058,-0.16112646190913077,-0.11014832472501765,0.025570128066187015,-0.24983454963727875
428,0.03403004183189519,0.02118471416216683,-0.004394371904926761,-0.02842285926329219,-0.13982879267408074,0.039998151340891935,-0.0012122229068913413,-0.06735485452494765,-0.15662001590899782,-0.1102516634676684,0.021132123519089815,-0.23756196093252993
429,0.029525473413512113,0.021436782294629926,-0.004273880182612009,-0.023058272074963644,-0.13984699177390392,0.034258284820284673,-0.004716534762440314,-0.05821579599704742,-0.1570129614458716,-0.10979796478181002,0.020668426173994624,-0.22069976776234984
430,0.029740939637128115,0.025799682624367604,-0.004213102300969242,-0.021140130375113895,-0.13983676703128448,0.03440810376744546,-0.004127686007863885,-0.054114318267495735,-0.1557444585503944,-0.1116709374306376,0.017407978278906503,-0.21800976383091653
431,0.02967864708372291,0.02528103578443948,-0.004250367975738491,-0.01895182227569427,-0.13975419250295185,0.021174621296128845,-0.004257052595041637,-0.0478449091462915,-0.1514565147296526,-0.10006005614765567,0.022123439603737832,-0.21269195197085314
432,0.029419180080200242,0.02556245222296578,-0.004209819295240047,-0.01002062415087463,-0.14020407939548335,0.0013284842163300001,-0.004240631656221783,-0.036879692966575714,-0.1567742860146546,-0.09576486932539285,0.018922316943353914,-0.20842511640149172
433,0.03130362761624155,0.024956897612083258,-0.004351265834842485,-0.00432465954671026,-0.1374615616099288,-0.023865449587551036,-0.0042244964300458465,-0.03410699108907367,-0.16461758508102636,-0.06028581378579227,0.01666452254679012,-0.199143500584384
434,0.03699461937623738,0.02834049447325944,-0.0037808567151321536,-0.0041606684126941915,-0.13485518754688444,-0.03655998826073437,-0.004209222603776477,-0.027821347039881778,-0.16500725145566236,-0.04990954110811111,0.01689514805174812,-0.1937888871437074
435,0.03797625371473058,0.029647376018469104,-0.007399074979437311,0.0005976007467289515,-0.13922084070756904,-0.06641983929761117,-0.004742657081640343,-0.017624634015019767,-0.16904015608728423,-0.018010511239723002,0.01724738867550748,-0.17948099953327643
436,0.04149992162892591,0.030215447608368664,-0.008629295341977306,0.00628224116875291,-0.13984077588604626,-0.08302941262154218,-0.008897829745264534,-0.012666740610887562,-0.17382598984982012,0.022929655178315054,0.012810217074599544,-0.1718830644175567
437,0.04629762664232361,0.021257904848178362,-0.008460433894334285,0.015072858022802133,-0.13974248761155494,-0.1062678422589662,-0.00835216525841093,-0.007753701101410115,-0.18259409020043973,0.0674668749724887,0.01276353116229568,-0.16801529273787913
438,0.050901081977928815,0.020740360308812992,-0.008472490627101394,0.017169359017993623,-0.13529594537784137,-0.15925189540914578,-0.008505219232262712,-0.004369776822085482,-0.18292029930718945,0.13910382527027407,0.01268295471471476,-0.1596640095383434
439,0.05128890829613294,0.011619820332424546,-0.00847640069814707,0.01690044863867321,-0.1356433946959698,-0.2049094027874317,-0.008467809213970601,-0.0014016926318573585,-0.18697616175439954,0.2138303283556165,0.012735712033019705,-0.15487466727975788
440,0.055530601061335186,0.005268893204353897,-0.008472431247350715,0.01695893394312133,-0.13590431265046996,-0.2381677507407759,-0.008475899382493194,0.005232851042990989,-0.18621905659202456,0.33009130264300235,0.012633986699539633,-0.13755362286437922
441,0.05494841835133634,-0.009892848632998169,-0.008483021865237058,0.016946162698058112,-0.13352062109703572,-0.28518698993290675,-0.00847426502100405,0.00359438958720356,-0.18683925410713517,0.44650594264093535,0.01303817857102532,-0.13556857841204428
442,0.05514915545030166,-0.0247628094176944,-0.008436629204938323,0.01695123738797716,-0.1310311342850182,-0.3284337022328147,-0.008474739018432535,0.007470584722663489,-0.18350968067172005,0.5054344656269089,0.010224335806679715,-0.1310282181547257
443,0.05494903877968893,-0.05020706713386955,-0.008629173460962437,0.01696549087951423,-0.13130346543979488,-0.38353091994499366,-0.00847581223312896,0.008683730772312829,-0.17867518646806912,0.5987059397014403,0.004802614950343679,-0.12507661267823814
444,0.055548610251970144,-0.05525071317377232,-0.007917115504001603,0.0167778475794785,-0.1316891430083823,-0.44834748393796386,-0.008461638545648166,0.008384500525462846,-0.17377695282908637,0.7179352555965929,0.004193670572721938,-0.11084420057309533
445,0.0514315854384844,-0.10678823740099513,-0.012413818770399158,0.018133708853878994,-0.1272440232957969,-0.4922290905062322,-0.008554948794748345,0.012901913024179066,-0.17345507870976662,0.8900500969054236,0.0042481689599976925,-0.10402975940475713
446,0.05091648424691951,-0.16491743658237873,-0.008779098597158442,0.021538085710667662,-0.12702077354176025,-0.5351746332996635,-0.00807059718091372,0.012663029186409942,-0.16959917878691022,1.023101324817969,0.0037955025002410175,-0.0978437771294764
447,0.04643722242337864,-0.20723273541287549,-0.008500897976095339,0.021520923079953156,-0.12192015684055169,-0.5639867521953138,-0.010890460177898503,0.012445381085789506,-0.1661420230766725,1.0766040455559014,-0.00035608924081252983,-0.0839166760818384
448,0.04224287569898414,-0.2501770925903939,-0.008448159532109718,0.018336084880964887,-0.11825591793039607,-0.602622349063602,-0.012574649148568037,0.014543486501962608,-0.15356289830438546,1.1315314578633695,-0.00019541111421131645,-0.07703496822703025
449,0.041841295677857965,-0.29930879099811947,-0.008484436023972227,0.016762574710632045,-0.11912388258738958,-0.6586869301437209,-0.016057499330167556,0.01733993661993555,-0.15247414549745453,1.185606509600933,0.001930643369067122,-0.06862827002890766
450,0.03582341741663614,-0.33622873545867854,-0.008472539641150497,0.016907322932307865,-0.11628180422582944,-0.6906980129795344,-0.01703744446635251,0.016868079702370878,-0.152556077765891,1.240236823781175,0.00494036754586753,-0.059231542812153794
451,0.035926527645765885,-0.3670928997430932,-0.008470966899761753,0.01695758160101976,-0.11453264200607349,-0.7168468422173682,-0.016950776983359946,0.016970194093890268,-0.15254014301511007,1.279434311408,0.0014063027755062938,-0.05830437151857048
452,0.036195156004977615,-0.4301717675878855,-0.008492495419887893,0.012471733811803363,-0.11115026037365362,-0.7374655314035885,-0.017298940050139724,0.01693227945535612,-0.15254260479107637,1.3158108178284005,-0.003794486059253931,-0.050261458624799304
453,0.03307427038676438,-0.4786494992028184,-0.00840830553239617,0.01276402813294458,-0.11002604200295889,-0.7552304256045358,-0.0215848772785036,0.01691169971179856,-0.15254244093398375,1.2852733942351533,-0.004295446675957512,-0.04884481762000942
454,0.03750037707216244,-0.49321954651236455,-0.008679745876763805,0.012986574932544829,-0.11018810608500938,-0.782152702193472,-0.021047816897297993,0.01758501846045364,-0.15254163505232035,1.2687824177358433,-0.0044508083736256,-0.03511696905581627
455,0.03818865056361342,-0.533925040105157,-0.008039676255209733,0.010843337494937702,-0.11045817990172245,-0.7941992299984564,-0.021297300487832602,0.02084547939371065,-0.15254729540902648,1.2221309461051646,-0.008866253889943422,-0.026401300075147238
456,0.038125450831709325,-0.5572446063003101,-0.01702699592784507,0.007960953110196282,-0.11483079050232495,-0.7839128412432589,-0.020848447304500896,0.014654054035314314,-0.15251649284206203,1.1582861799867301,-0.008075861428000925,-0.022279206934025405
457,0.03854401448455104,-0.5804879376516833,-0.01724193621675919,0.009030001822012948,-0.11398601452436283,-0.7424535057304071,-0.023785552022429435,0.012898370659829001,-0.1526586423526737,1.0894612646430166,-0.010246780786503751,-0.01743347191866885
458,0.0427602357168956,-0.588914950315083,-0.021446328608945374,0.004804565542919161,-0.11626914036483675,-0.7203284577884642,-0.029154502047433167,0.009864265189256328,-0.1520864450033404,0.9741564342597486,-0.01302511906743424,-0.012695423744393005
459,0.042339075429591075,-0.5813524891796401,-0.022324676990444492,0.0043717121083960316,-0.11892154205428546,-0.6367983521933007,-0.029705058066059047,0.008600338613837568,-0.15589442740402615,0.9318193656315887,-0.01295183501066469,-0.007866846739781372
460,0.04198781631322149,-0.5691631076191536,-0.02629972474202496,-7.253273118719593e-05,-0.11898279467062893,-0.6061383339107368,-0.02965821823657215,0.004786743463653469,-0.1568856002455705,0.890010805472834,-0.009735073003366616,-0.003914782038091699
461,0.044880618914957045,-0.5559566373349786,-0.022885826563108193,-0.0003069069735507326,-0.11530408890256763,-0.5275273377195614,-0.029792500673709258,3.526412242262902e-05,-0.15677851626971812,0.7987786309565331,-0.004429102035169505,-0.004340132786771856
462,0.04666227673630796,-0.533541749757507,-0.020826526671388686,-0.005481850911177299,-0.11408656024175132,-0.49613597212958666,-0.028635130748216005,-0.008883715634916764,-0.15675290442216686,0.713954983840535,-0.00422631745702182,-0.0041829272462730405
463,0.047341605431721466,-0.5189248018025949,-0.02150551781300456,-0.010050244540220266,-0.11866809740044118,-0.41747572105664005,-0.025214890699130917,-0.008683610195189482,-0.15696244155391617,0.6143266723637214,0.00022561789981817405,-0.004364314227666775
464,0.03875497445589084,-0.4826699953983864,-0.017523440826016565,-0.014823054760566256,-0.11855006722794294,-0.31967857293965785,-0.023887189414967654,-0.016111127954749827,-0.15556142193982217,0.4870050413505294,0.0003339161524266921,-0.0038106219755770438
465,0.038133005102694545,-0.4464775505152643,-0.012706157584863273,-0.019526243555252783,-0.11888685463621758,-0.2255102273826575,-0.018050530869645365,-0.02144972064653266,-0.15082983765527622,0.4029934750901262,0.00744541511604052,-0.00795039935281567
466,0.03324739844028998,-0.4195375554126524,-0.01237301248491541,-0.024296881230656063,-0.11724402297804563,-0.11570266883388564,-0.017075439181192427,-0.02388085750890465,-0.1433647525647732,0.3547209158527092,0.01432695752352345,-0.008508232146546342
467,0.02940058904367738,-0.36256459014174464,-0.008253804376443607,-0.02889780903119896,-0.11396862632217929,-0.06032906192248707,-0.013607538214678657,-0.024699975000110848,-0.13611457589869314,0.2364813839343301,0.02435442536546434,-0.008562437559226038
468,0.029686600493179352,-0.32521381760219054,-0.007366575366605744,-0.03383102402284798,-0.11450846686461698,0.05723666566904399,-0.008536019994569795,-0.03313121617826091,-0.13577630093140064,0.17394921008713654,0.033669466034037275,-0.007698964581832135
469,0.029917870561792872,-0.26953931946400395,-0.0034456203952625028,-0.0340954397739242,-0.11438080429927698,0.13868653004830503,-0.008295846397660496,-0.02975606829431326,-0.1316083703359736,0.0635308115230344,0.03360130109563072,-0.0040890585176896884
470,0.027764181122870803,-0.16363114682922508,-0.006384578712128403,-0.038331143475721634,-0.1144282423545308,0.21766300964070504,-0.0038115522151725835,-0.03407102432331743,-0.12685219478787496,-0.13406204337160962,0.03794408821514801,-0.002510254560252618
