,I,aVR,V1,V4,II,aVL,V2,V5,III,aVF,V3,V6
0,0.04329004329004329,-0.017316017316017316,-0.006493506493506494,0.015151515151515152,0.02127659574468085,0.027659574468085105,0.010638297872340425,0.04893617021276596,0.00425531914893617,0.0,-0.010638297872340425,0.027659574468085105
1,0.04725755906071853,-0.017316686144503383,-0.004269759592123617,0.017375672958322992,0.020611086360471414,0.02933932935779556,0.012824555588553183,0.04675242796073779,0.004233765283403288,0.0037051664633815967,-0.01288155817190631,0.02547074599222332
2,0.04280051086160968,-0.017312730706099084,-0.004353701229145725,0.0172907461789272,0.017537601485772433,0.02520172583713165,0.012741323917093457,0.046825052255087186,0.004361371199153641,0.0004764830994372328,-0.012456567618792937,0.025569221014508405
3,0.04397001683081142,-0.01733407192123446,-0.004322741479144099,0.01732498212104321,0.021821339143034912,0.025471340238346293,0.012773634485322252,0.04684389715407485,0.0036736283038228557,0.004736202138757997,-0.014516598613936288,0.02545489642980599
4,0.039812406653485746,-0.017230036165287763,-0.004324652043972501,0.017307636095403235,0.021161316007504545,0.026323680573105045,0.01276307640849688,0.04660713410739312,0.007867976870145985,0.004508751740321943,-0.015298311351285766,0.02586205701128943
5,0.031721052727228014,-0.017676323952473455,-0.0043546881154355776,0.017342948181069136,0.021188367894955935,0.02052411766527433,0.012770337611824193,0.04765475098489019,0.01553875194812315,0.0018185089212223822,-0.013181691519003821,0.023293046449635663
6,0.02760002213498206,-0.014587038560889217,-0.004235241857930476,0.017221389745256156,0.021717053735325106,0.01670076970746997,0.012751786319043633,0.040853361517901025,0.020457755169465918,-0.00029985150482915457,-0.006732919502614094,0.01822426490030473
7,0.022301452513359618,-0.009438295040454287,-0.004600830953342468,0.0175856339801059,0.017717981128624903,0.014148358996757362,0.012806143026072065,0.03499029891135544,0.02078630054019031,5.024323105218167e-05,-0.0037311022408144188,0.013416959943893898
8,0.021504940980882344,-0.004778433234166332,-0.00029276874683903994,0.013242619710836066,0.01695252633799689,0.005105162395170574,0.012708485179204124,0.026072666224518683,0.029214401205319117,-5.550764848895467e-06,-0.004601532615624673,0.0088504422997475
9,0.017290369445362837,-3.320174126785718e-06,0.004564635826520777,0.008365893344325068,0.017015364790655615,-0.004395107078833542,0.01758968574611645,0.021130206471358947,0.0342057907252224,-4.3138194507609993e-07,0.004544056780851311,-0.0004943550235069217
10,-0.005832187633360492,0.001297530080140319,0.009585694966979435,0.0036801838028094756,0.017033421801232174,-0.009150002026990905,0.02601153868485033,0.016132451952033357,0.03885213929049057,3.2684676794175143e-06,0.009609073923364901,-0.0043182287712888985
11,-0.009017310988698991,0.015092333139264655,0.013136266177785962,-0.0024325578919993924,0.01697387384882623,-0.01295162631496042,0.02626759625127485,0.012895359887622236,0.044892273787131856,-2.0975651600264873e-05,0.018854175549907724,-0.005075868505924908
12,-0.015819749766938927,0.018577079622502657,0.01422711970041226,-0.011257719544340988,0.017265279615134823,-0.013757205084393603,0.03173484225643462,0.00992847051494516,0.05250989014543732,0.00011352311903249536,0.021575657893255874,-0.010718415096656154
13,-0.024411923511969674,0.02417147343782024,0.02008061189139071,-0.013177472166400604,0.01540595840145827,-0.019611513080021865,0.036308133627236665,0.0016750546639236724,0.0615974417404896,-0.0005273377223141854,0.020901526675281966,-0.01305896475247429
14,-0.025798634550506933,0.02623860727997207,0.02186386247136316,-0.013033906929341602,0.009631406077423625,-0.021092917337536477,0.04110063032595176,-0.0030285882764974677,0.07194170886877536,0.0030436422436040003,0.023591915992264838,-0.012702881605270005
15,-0.028698134235586387,0.025952767065691995,0.021659941332426668,-0.0127016095744792,0.00878546098390107,-0.024327513727526846,0.04588812389323322,-0.004046199468463666,0.07197355921992094,0.0013921803426170886,0.02903292489604375,-0.012783940891269155
16,-0.033362459041238884,0.025892417118808717,0.021516237087805305,-0.01674967679850623,0.004766435484675608,-0.025793184445297546,0.0505588050872451,-0.008005675877737232,0.07612494513901072,-0.00020359515313633195,0.029962219384837604,-0.012747983085281122
17,-0.04241196218487283,0.026106439721706565,0.025980194681446835,-0.02167613472423394,0.004342667960079672,-0.025355874863186623,0.05534064179338445,-0.008536719765198389,0.07660979504090636,1.928839413326011e-05,0.029710351063766533,-0.012755192717789875
18,-0.047622967199686624,0.02149080485401731,0.03537207206737345,-0.021473714062616243,-0.00015812569185977797,-0.029900244601689285,0.05560394916316798,-0.008599808565834486,0.07651723969883499,6.098454021956865e-06,0.03417164202808731,-0.013202000278343876
19,-0.047674791335227416,0.02178824932022328,0.04003749982086081,-0.022605996747768243,9.433563410239997e-05,-0.029703921949351283,0.06075603275140675,-0.007777177021112593,0.07750230147885402,-4.957111570874354e-05,0.034672277361760914,-0.0174189849435471
20,-0.04686300206560058,0.02128835337207842,0.04377156451585096,-0.026440547362610735,-1.0250681456505549e-05,-0.029812224178615943,0.06536668282884428,-0.0038076950090502834,0.08003383514178052,0.00031933767960864496,0.03876276976980397,-0.016989535589920658
21,-0.04251394277193456,0.023605515933223707,0.042792801610041474,-0.025826836852273508,-0.00011123461595660515,-0.02980576870637585,0.07019124626899419,-0.004375543676905533,0.07612732768300373,-0.001919221813912085,0.038252308819325245,-0.016629154355167527
22,-0.04528485957778449,0.024573677854148983,0.04582993595427302,-0.02612475011801343,0.0005339945112034419,-0.02966642592940983,0.07484174770932803,-0.00422702901936788,0.0762835301370656,-0.002548588140502496,0.037968730879904294,-0.01968279256541736
23,-0.04811215220563059,0.01839605560304118,0.0482575414480729,-0.02553231799354947,-0.003183187757902512,-0.03027842615120789,0.07996011459885174,-0.004261128716841948,0.07952941712264908,0.0004455630228051943,0.040924427723631494,-0.021507316500740215
24,-0.04708250407538059,0.017081125867832662,0.046511831109561266,-0.029771559596332226,-0.0013809102339679543,-0.026431617700975032,0.08112599153526351,-0.004254341417215375,0.08107169301989996,-8.520015500591567e-05,0.04587504687446904,-0.021301880366867764
25,-0.05117082400062283,0.01754496036705265,0.060132364449259006,-0.03033222784721891,0.0007275064458476242,-0.02571150139800592,0.08065594121890747,-0.004255410912464866,0.0807783281204629,1.423744974205796e-05,0.050784660713602,-0.0212089887122656
26,-0.052037096489141677,0.013118942141635668,0.06069244319715713,-0.030315525623370695,-0.008387572203365591,-0.021413322636349524,0.08974561777032494,-0.004255307349529968,0.0808062962873646,-3.06789651609453e-06,0.051024939593186915,-0.02596723759545441
27,-0.05194904233786662,0.008594398312157577,0.06506978044890392,-0.030308663466997357,-0.008425460869770536,-0.02132424348499559,0.08906988581547873,-0.004255829397926809,0.0760714113527186,-1.6093390293581365e-05,0.05199351659999436,-0.030069729006068833
28,-0.05193605654788119,0.007843792174930857,0.06688052074613966,-0.030226761369652827,-0.00836309841449748,-0.02124968393175462,0.09015240043191503,-0.004251482123468629,0.0704409160416198,0.0001719908244293496,0.060145647483388694,-0.0296148269492341
29,-0.052006130338849786,0.004890160257136385,0.0758753928199517,-0.030692890155795544,-0.00982046832161909,-0.02128568512198563,0.09725580399999978,-0.004276375982169736,0.0614504817632284,-0.0011909213812148806,0.06091049486844535,-0.030230797454508296
30,-0.051630761201959204,0.010683209475187055,0.08055489654936003,-0.027884084478637702,-0.012802368727866838,-0.021274072967342125,0.10531441683955137,-0.004157428898694217,0.05976206371447155,-0.004413471852976255,0.06378917923627424,-0.027248784523477128
31,-0.053854756108406225,0.01567063652428504,0.08205261891832234,-0.025571280677489008,-0.015167881172381683,-0.02127720941364465,0.10619029720866383,-0.0046548500920941685,0.057026552635651415,-0.006073726677341184,0.0668291100625449,-0.025718501677251
32,-0.056683999325507356,0.017573161583716114,0.0857454671724533,-0.026325988001360687,-0.016842936121896638,-0.021276464063469214,0.10956910879300402,-0.001282972895747005,0.05496190569286207,-0.01122321459236491,0.06663658858340074,-0.021953841187268043
33,-0.05616184090488722,0.017278645450271034,0.08650325645218548,-0.022089653331040543,-0.020605879136438084,-0.021276619798575026,0.11454922838698738,0.0031789605689011647,0.05560380715714775,-0.016272819482925444,0.08274371396489254,-0.021419169448606258
34,-0.056396209438794934,0.017304009871581948,0.09091860569050768,-0.017199347608008887,-0.020960634247010883,-0.02127659247747857,0.1193007731980388,0.01246667527620789,0.05134501839621339,-0.017114374072556653,0.08530926803632857,-0.016964609861415268
35,-0.056037382251528864,0.017310733968262448,0.09529881177832623,-0.012252825103904835,-0.029846794032287523,-0.02127659585627121,0.1234094513416477,0.012588232247851357,0.046692477215339694,-0.01701790092965991,0.08533566764664144,-0.01659535201282544
36,-0.06062339628483547,0.01771454071091353,0.09628511210711865,-0.008248235428254615,-0.03415905325036934,-0.021276595718482613,0.12512924307702336,0.014085123696219524,0.04691934161476123,-0.01701797924049636,0.08972533101773064,-0.012482471889999626
37,-0.06053831434448314,0.02205355077397725,0.1089592790605783,-0.009138484898874201,-0.03399443335237317,-0.02127659697829554,0.1339779949680834,0.021871393773664587,0.046511991810273746,-0.017022846497205965,0.08896008052189454,-0.011725421309899061
38,-0.0606198231523907,0.02152670839293473,0.11929061946381735,-0.00633775052413494,-0.03405875198365141,-0.02127658810578069,0.139407983891792,0.022711538824434295,0.048506083944287307,-0.017020745405245574,0.0911837016321304,-0.005788779925314278
39,-0.06068253584238897,0.021648102691532924,0.1260618684646844,-0.004449171117665379,-0.034030909287950536,-0.021276633324213715,0.1533310235922316,0.02604302799570499,0.05144557810887432,-0.01702155338004746,0.09354850383980952,-0.004491929792838455
40,-0.060201569220255303,0.02175928119884614,0.13381453876583124,-0.0010434850461115352,-0.03407613921688791,-0.021276434179415035,0.1604427224734512,0.025275870335409515,0.05109042943211471,-0.017020636610539965,0.09650476758224948,-0.0009268158378393217
41,-0.06309124781158164,0.021202954513406813,0.13363408693072645,0.00013130710814724853,-0.03392309374680289,-0.021277208727519405,0.16944768588002876,0.02606640301046631,0.05070221830832049,-0.01702358953048923,0.09766927688125576,-8.598668012178541e-05
42,-0.06523999523741807,0.025270658789001074,0.14243596242702203,-3.911759056123834e-06,-0.03440209368688084,-0.021274617682669375,0.1701475509151583,0.021403358247071392,0.054846369182536533,-0.01701383333499801,0.10177316741863848,0.004124299463930005
43,-0.06488410129427252,0.026086222664670575,0.14758241695350116,1.6865189535649987e-05,-0.0300197538908149,-0.021281200357475695,0.17958866505342705,0.025505713081217917,0.05534590789400346,-0.01703860073408107,0.10211117025701885,0.008649213160951168
44,-0.0649374432958376,0.026090351504969602,0.15701029494981222,-0.0001935628401712941,-0.029810416162922834,-0.021277051980180952,0.18964774481132926,0.025540822012698892,0.05081571586683677,-0.017022993097197778,0.10655209512716278,0.008578643643971167
45,-0.06493379912034283,0.030619280688058755,0.1612473172813619,0.0013193344491725717,-0.02980383872752912,-0.021181176458180608,0.20394007353214041,0.02476382144916388,0.051378430199596106,-0.01665562129209425,0.10706281069857888,0.007541359792562253
46,-0.06502294541212764,0.030136069271102225,0.166726458039491,0.00478653483345194,-0.02952734551491935,-0.0220872513839396,0.2083196726621288,0.020806350009338826,0.049614428595749986,-0.01232396550298801,0.11119435349290041,0.001923584329152219
47,-0.06419849465518283,0.0306201354191517,0.16872718394815436,0.004214923220179556,-0.0314455576585138,-0.026090194405051993,0.2132143109436,0.02142010876887211,0.046768594883468545,-0.013141927703990417,0.11019207429712491,-0.00028973848276516475
48,-0.05935231374951698,0.028471250469121603,0.17158734572196044,0.004382667199352361,-0.03389663768846983,-0.024922225874808173,0.2194223514675116,0.021159406451024935,0.044439698629343875,-0.011117237508847777,0.11280047642194199,8.818602775157893e-05
49,-0.052396563502139004,0.023350443232416848,0.17369770061003195,0.004227037706835344,-0.037231906563755954,-0.02840710475662103,0.23182779986985097,0.02160920382066575,0.04216711548488693,-0.006102556796977236,0.11788185524247802,-0.00010580288626906907
50,-0.044855765798726514,0.018200654595110628,0.16940421588146065,0.004509809047215246,-0.03482688269937566,-0.027363302797407365,0.23806610202613476,0.01806590841323092,0.04284285305512313,-0.0010068864359100347,0.12255327742485773,0.00017801582015028526
51,-0.040141441405106476,0.017136999025067115,0.16449432218706975,-0.00010988002173193617,-0.037823740263426074,-0.022127286815825983,0.24265201180175686,0.012943503602383019,0.038770264027994446,0.00015395547056977715,0.1273436814368896,-0.004363912413725506
52,-0.03861699835336188,0.01740989238274679,0.15913998696258413,8.766406363516164e-05,-0.03432317760852465,-0.017246355112870114,0.24251385086500288,0.012784221747314506,0.034080535959726,-3.394490371872767e-05,0.13211519824113335,-0.004158914200103644
53,-0.039373472742405845,0.01261661648090661,0.15107262456240217,-3.023588561511974e-05,-0.029562322116903583,-0.01703720379533136,0.2422982427309832,0.01274982126912378,0.03864981275439641,-2.5509851420705717e-05,0.13604211412787975,-0.00435496860706039
54,-0.030220800884068574,0.008394254342352766,0.14970694102271492,1.9094925325143562e-06,-0.024273519744367675,-0.01697268090153159,0.24430602774846896,0.012770689118763024,0.03829795643268004,0.0005791219134437971,0.13891315863222475,-0.003886266741975552
55,-0.026065213448182308,0.008762534912675314,0.13657605585867189,2.945825404924854e-05,-0.014187624287369633,-0.017254385669027875,0.24660027781230356,0.012770983197713049,0.03761013506666225,0.003737905358613367,0.15152121012319852,-0.006463555863974606
56,-0.024257245842099828,0.008551927242998067,0.12406518754356279,-0.00012378524269170496,-0.006432641888288236,-0.015579866092512547,0.25137358068018517,0.012735648413374002,0.04266752188630547,-0.0005745452568751894,0.1554928049152757,-0.00887645209013241
57,-0.016710446879213504,0.00902337113264558,0.11799805642850433,0.00041503318632217805,-0.0020599452349893133,-0.012216362032529588,0.26261187965201066,0.012888789772054463,0.04706114422887114,0.00011840869735455219,0.15741797020464585,-0.008342920825844037
58,-0.015558524551018457,0.006121460378372125,0.11331190123978677,-0.0039039020297025615,0.002593484066283646,-0.013328548891942335,0.2636986943768407,0.01234143549690124,0.04990352841528747,8.876841411058122e-05,0.160310576135158,-0.008784957982616677
59,-0.01283573506810954,0.0011036399617149963,0.10849266770243741,-0.0043372545884946545,0.00796417835109348,-0.009576157471603034,0.2680635267090659,0.016519957053437825,0.051311838691389236,-0.00043102168253320527,0.165359002062523,-0.004280992238261316
60,-0.01061519335793908,-0.003986801347145418,0.10376278590414062,-0.004438242186688078,0.008154070102645468,-0.008428750331926239,0.2682944039895641,0.017047572897278228,0.05095077030903416,0.003638360427862306,0.17005835182147008,-0.00441152889401264
61,-0.004465710683003327,-0.004334771409862808,0.10413177956645735,-0.003500257586805909,0.016868259138991062,-0.008401074028277968,0.27338189364133025,0.017035001341680206,0.055319456473014735,0.004312153039493098,0.17475177771408806,-0.003406251455065401
62,-0.008345047410226838,-0.004235291988382648,0.10271913425422162,0.0005483594375751228,0.026464003946420716,-0.01300085849666346,0.27829172813269926,0.01701356826229692,0.057168547939875504,0.004281485559845673,0.18022269871304833,0.0004533603042934917
63,-0.008682115083723631,-0.0053024482763961355,0.09910978926789615,-0.0005355049381818694,0.034709874875496746,-0.01770327018571862,0.2811862507909864,0.017027654790120545,0.07039164294122366,0.004005619646003695,0.18923015303369006,-0.00014564996470969443
64,-0.013167318430543893,-0.0077342722848275595,0.09967914312432599,0.0026184543804976773,0.03354130748826358,-0.02239030540136752,0.2808659438664197,0.017000403922270927,0.07414135863099136,0.006058545121931945,0.19179882862545208,0.00014856048891741957
65,-0.013772940788764057,-0.004176444344338218,0.09953614855962926,0.004602432252634694,0.03595282236367989,-0.02754873418530451,0.28051902551319113,0.017108993326825885,0.07721803696208161,0.015351575358060058,0.19111552888709687,-0.000446348285376085
66,-0.017572886937461774,-0.0018924266759737553,0.09959667895454415,0.004287102834554293,0.038585900925856766,-0.02976454853881667,0.28421582135985407,0.016688755822822147,0.0756053028852764,0.01680623720405967,0.19394297109998002,0.0036399721255117967
67,-0.018747040752049717,-0.00011423526544473094,0.09950681707580973,0.004331687305157921,0.03857325987897467,-0.03214587521640432,0.2891130080682304,0.020092285898880492,0.08354001365566088,0.019624967104469083,0.1995141955927748,0.004303429017237941
68,-0.02445086258725663,0.0034656166965182844,0.09955936084959427,0.004326423583711695,0.03512941514807232,-0.03693748820453226,0.2938638709244452,0.025286667465142826,0.0852623454693275,0.021759955065083356,0.19981707460391543,0.004265379159491906
69,-0.028018801290799887,0.004484579774436011,0.09479160260119376,0.004370670481597832,0.030176624451641175,-0.045221261081377584,0.29862843278665874,0.025526655309659307,0.08510190974039164,0.020611237514455826,0.20427874353511416,0.004248821183259963
70,-0.04073595999406182,0.004374664965309152,0.09689686984187684,0.004054735064885291,0.025458466185751795,-0.05515734968370173,0.30333000677074995,0.025538306530245383,0.08554454205980988,0.029549929838793537,0.2044812760125986,0.004257235028812536
71,-0.047661963320523755,0.008848997533906148,0.10620598969173382,0.0060433554003858,0.021179683767122575,-0.0554096880321817,0.3084073935791619,0.02558618236085246,0.0894765070169614,0.029701942097186754,0.20983408849190205,0.004256475614954156
72,-0.04769124122683074,0.009231784147578073,0.10855975595656721,0.009107682107172568,0.020409922992714786,-0.06060466894752391,0.31108419890649214,0.025199786756559386,0.09108666768795357,0.029780282234965313,0.213091730205688,0.004247585147206722
73,-0.05671345783465984,0.014907026208919245,0.10768712788379109,0.008445912922597613,0.0168917675307921,-0.06415951027592595,0.3100984818943935,0.027553938914653187,0.0916432513571967,0.030126690879778123,0.21268206397786335,0.004285720472523791
74,-0.05695400097459591,0.017747505999254797,0.11152960979571164,0.009078754075323141,0.015038750925292617,-0.06364721996398083,0.31411979559917724,0.03006797626067989,0.09159033603616391,0.027692458905713153,0.21278561878144764,0.004156166504934483
75,-0.06097033101362518,0.016779959441985664,0.1124564385213188,0.00469299511782008,0.012852936576226132,-0.0642755395591024,0.3148706205888485,0.030035679953529088,0.09354117275362206,0.027529599499237757,0.2127595792248963,0.004485465688476945
76,-0.06167169485229578,0.02049787694205466,0.11656854657337605,0.004333064391402546,0.009613449706191235,-0.06105588673280672,0.3191952113873473,0.026493396152489752,0.09720825587936989,0.029625439426099916,0.2127743394312819,-1.9040822270615245e-05
77,-0.07007397319759708,0.021815670489506,0.12132244186373098,0.0043096718397745105,0.00867822793845422,-0.05916090372295825,0.32814396470676765,0.021405209790424692,0.09792745688213075,0.03347739970442815,0.212753357710212,0.0004700658440675981
78,-0.07666224180309746,0.02161791320290296,0.12113303491136046,0.004336629631943443,0.004493714471619512,-0.06287046229182046,0.32725567660967364,0.021290440588312337,0.0978923729255878,0.030341025009451836,0.21271440947804682,0.004650705948865932
79,-0.08178123373103185,0.021607515100704962,0.12131127899688453,0.004328361914908238,0.004324820788325283,-0.07225060966035941,0.32912976279005174,0.021420606390379,0.09774360004561418,0.02976951737304632,0.2134548023658596,0.004046310583109897
80,-0.08193883611993963,0.02219177882707869,0.12081704207574562,0.0043214156001646275,0.0036575339835498216,-0.07223731768769859,0.3324446879182837,0.020124391043798293,0.09877242269195922,0.029767595734444215,0.21666839079429837,0.004731123029991622
81,-0.09103224977863698,0.026409881109964936,0.12358060798235798,0.004362470437617172,-0.0001686586659400155,-0.07240219266781901,0.3313808413629465,0.016927843517431894,0.10384474404984136,0.02979275542032925,0.21036542182978382,0.0015078847052178064
82,-0.09524424469354109,0.025848545044791348,0.1257423905462923,0.004210052416984577,-0.0014498820993657984,-0.0722408874282924,0.3350551576017275,0.01490711076384213,0.10899838020628155,0.029807103332712782,0.20901751641387503,0.00017437926890106104
83,-0.09612340366933339,0.026007972286712634,0.12589094505948376,0.0046630792806708204,-0.004709287546015044,-0.07275732962239233,0.336491902042962,0.012407886494437137,0.11058013540755135,0.029676134484737545,0.20331928671647498,-0.0036570429174331474
84,-0.09971708702052136,0.025955781228373272,0.12158429801392506,0.0001351092588393302,-0.004163828415421137,-0.0698612605192023,0.332233895629891,0.012830933653428087,0.11349373048692264,0.030266857046373063,0.19653501018352515,-0.004296186347117266
85,-0.10141526440317694,0.026014837150380207,0.12121451509018727,3.0727336381846334e-05,-0.004244124183331504,-0.06815038432573782,0.32284269131850096,0.012757387121505627,0.11891193063146926,0.02672776077213164,0.19204127177182947,-0.004283964602316361
86,-0.10425126773692743,0.02586587587208863,0.12126981783923332,0.00014721173483144484,-0.004334755139783518,-0.0649359075241645,0.31944983418082373,0.012766140145829016,0.11911567903564596,0.025720445879836764,0.1873282014530896,-0.004078397694100993
87,-0.10405134791426832,0.026101803236555896,0.12055116990124802,-0.0012054895637643112,-0.004158225101714323,-0.06013519455362956,0.3157587213482169,0.012764573377886371,0.12364741063806257,0.021648573194641276,0.17765665384806906,-0.0054458555357996185
88,-0.10315863462593304,0.021699824842818866,0.11499908874273114,-0.004764872121836768,-0.008700983496452321,-0.05532337368210607,0.3041160876598733,0.012780867350722501,0.12323972156354963,0.021280784793527963,0.16993691248859663,-0.00896358910501117
89,-0.11192378025063189,0.02640194656526055,0.11210706552416849,-0.00434060381505618,-0.008281313879781142,-0.059714862697380126,0.2961719930401103,0.012677722017617944,0.12376742641007295,0.02120372434351235,0.16827608704335204,-0.008403238115920024
90,-0.11251209233766189,0.02602370484325195,0.11312522924472855,-0.0038905721630888494,-0.009490174855895246,-0.05305255005913485,0.28016736999130065,0.013194309016066559,0.12141540589569354,0.021702167606474167,0.15768538131216206,-0.008532779507654253
91,-0.11325032007314408,0.024677966860050565,0.10921169829634392,-0.007865785028274461,-0.014619824571023702,-0.046389467135150804,0.27035572225308907,0.010185104068971067,0.11923513257571564,0.018569625576123207,0.14828454985764128,-0.008506880156290565
92,-0.11539211141822982,0.018761239686329638,0.10840792961053483,-0.008744475230165583,-0.01933680745676942,-0.045020517916434896,0.2561302360285082,0.008697316482955892,0.11612934841650747,0.011773177442049828,0.1394662693069139,-0.008511058663705065
93,-0.10785116114007964,0.017550091905271174,0.10408108299277159,-0.008664821043253718,-0.023776764234643453,-0.04237424275839261,0.2508415118179963,0.004922032940595901,0.11494503156842502,0.013406880405633353,0.12542254216099155,-0.008510658660684284
94,-0.1044720487344088,0.013881328184121631,0.10399565060342376,-0.00856377215666916,-0.02963415069063964,-0.040343314952353715,0.23239443705430443,0.00437620713303689,0.11118078208562705,0.009742239058415966,0.11966826520462849,-0.008510577201758046
95,-0.09911828436330952,0.012941933316193364,0.10318852160320574,-0.009386722862890346,-0.025675753918589127,-0.03142900146660881,0.2219253171527733,-8.542165707335473e-05,0.1017752602442379,0.00813642464757448,0.10591141673754662,-0.00851088872949965
96,-0.09689862100876055,0.012966903343653456,0.09942837701745279,-0.01498605639683471,-0.029778714808917445,-0.022284807914391257,0.20291502454972288,0.0002104402450607536,0.0881871467753928,0.008936342474735678,0.09319379383274778,-0.008509329512535692
97,-0.09208254323576719,0.017656654772519157,0.09784134683436455,-0.017636770347709132,-0.025214813457097755,-0.008334367819488141,0.19089094070343823,-0.000993703483778637,0.08443662702893505,-0.00012535617789476226,0.09200723205475834,-0.008516662630521456
98,-0.08301469624296834,0.016348996766051647,0.0952745521372995,-0.017245502404881652,-0.0256590597523666,-0.00848945982051929,0.18493031262510978,-0.004736464167501678,0.07765029835812431,-0.0002265415294485239,0.08348810844668499,-0.008486351852281342
99,-0.07790513099063186,0.012895420316618961,0.09227911963920647,-0.017329199367997178,-0.025568310144986388,-0.0018888267473510377,0.17471145901875,-0.003995825930027053,0.06993369747350517,-0.005406846065265756,0.07506488238205035,-0.008594827174352724
100,-0.07772836507730148,0.011086914151847283,0.09107698563096622,-0.01731417792659408,-0.025155151158879365,0.005091203984177534,0.15500242937771558,-0.004871156450406989,0.06514754328808874,-0.010485368720442229,0.06240716883186805,-0.008284272214025945
101,-0.07160489369684361,0.008695153188116244,0.08699193412639634,-0.01731608079230542,-0.027934694813688512,0.003760448648988959,0.14907855136976594,-0.0005616690969756592,0.06387679252016629,-0.012284512151960214,0.05358224905256207,-0.012594860131249835
102,-0.06273921621608095,0.005683000252049451,0.08658744130269652,-0.017315709721852087,-0.03023971496109274,0.0064203367834763546,0.13962943767088692,-0.0036762537037621223,0.06059819942620526,-0.017902561656367652,0.04363282241730622,-0.01718739218921968
103,-0.05984668664126286,0.004132362764766803,0.08615554600951958,-0.017319512744665536,-0.029252599973918565,0.012040204089845139,0.13004292867798836,-0.004183299624890719,0.05149482636075404,-0.021842081532579896,0.03846046392432713,-0.01675379503493157
104,-0.04659976315566916,0.004336263702200134,0.08186311176197147,-0.01729470511953936,-0.0339878757263854,0.012546947112685466,0.1217897353365645,-0.008643741617423572,0.04234756853009854,-0.021142307533513583,0.03377431330008572,-0.01836418325537692
105,-0.03202288517377022,0.00431406135405192,0.08228189953240886,-0.017421106295412252,-0.029733742158843283,0.016814113632471286,0.11672705458652545,-0.00903997202657058,0.0420058368058585,-0.021364070867260047,0.028374000135639642,-0.021409074531396594
106,-0.026811913888691717,0.004771720092646419,0.08264970890720047,-0.016866811212271765,-0.029404969542039024,0.01694349122500226,0.11596919846045206,-0.013401841309089169,0.03802784157303488,-0.02157579449575151,0.019230825238169075,-0.023252667792941408
107,-0.022058778626542753,0.009147509210120796,0.07958441301893578,-0.020344003350349853,-0.025322291551778873,0.017632320286735444,0.1057223870513846,-0.011847328643529548,0.03698899316118846,-0.030470812125280515,0.01716647354811987,-0.028490252746535997
108,-0.017243501258386463,0.008161436823360112,0.07777198781834768,-0.021936619938083723,-0.024139298845587333,0.021512611604717874,0.10220832565981669,-0.017558016375097966,0.03166698597346403,-0.02935055328450548,0.014750349020438721,-0.03321067657840182
109,-0.01210890514010966,0.010893997806491234,0.07761519938701114,-0.021416476065462188,-0.021132439282124774,0.022386304287493396,0.09439776375745974,-0.021435751659967438,0.026905020003316262,-0.03118106637455089,0.012468911312537237,-0.037855667062479635
110,-0.0019271429726369377,0.012764018577018112,0.0820983852266605,-0.02603951822046827,-0.019151889545051946,0.02815476227975362,0.08935207177010765,-0.024640132122680965,0.022651687286714666,-0.0361780961130069,0.012716829697043058,-0.04253820025831621
111,0.005953269734410905,0.0165650035897643,0.0822664804352002,-0.026316072092780855,-0.013903270875289881,0.02999304031523118,0.08889406940628382,-0.022567031430045376,0.013602284946323694,-0.0412810296805053,0.013009459081658374,-0.03765375223889238
112,0.01216106744492434,0.013774044224952917,0.08156438101533801,-0.03142993287142249,-0.009349665137418016,0.029885371468322718,0.08460102080616227,-0.0085004778530109,0.008501123054536517,-0.042747460244241496,0.008504286830460516,-0.04031272783797817
113,0.022708873495572192,0.0129219989492215,0.07794857381128313,-0.025878138909541052,-0.004398311414483339,0.029398937412536633,0.08558123620921212,-0.0012258589186443535,0.003952084107631236,-0.04252860639657943,0.008550881765647875,-0.026251894839731837
114,0.029371813277406823,0.012974397010975084,0.0749522463358224,-0.013112820077999437,-0.004271471209841066,0.03402996342756203,0.08293564008451486,0.05756591400161389,-0.0028459924012349505,-0.042550280546244094,0.008712949955904575,0.004147044136968339
115,0.0330639955525757,0.013003099155172133,0.06603878558892197,-0.014767360257300013,-0.004380100530238909,0.029580241814338652,0.08039539983753559,0.13592808033703738,-0.01410980489006127,-0.0425146379310879,0.007029828723019757,0.03837803842522922
116,0.04646481108733694,0.012932569482714826,0.06487216612606012,0.025300828998904346,-0.003221733684082228,0.02974085542729038,0.08132231045413488,0.17700187360113656,-0.012111767789132259,-0.04298992604917561,0.004300658198748161,0.08757540838659389
117,0.05640772779636179,0.013255626362073081,0.06271721413753095,0.04418232528282829,0.0005532173601981043,0.030901336464573652,0.07704982874820068,0.22902301376518336,-0.015026912797879224,-0.04870340157222162,0.0014800274068036616,0.20104097094224518
118,0.06073266829036435,0.01121088628571828,0.04853800563056241,0.1070299782227108,-0.0005315503241326367,0.03450905437323666,0.07657301207263706,0.3725497283265815,-0.02003265334096419,-0.04959470488719561,0.002364916624879942,0.2624847769543817
119,0.0610488416395947,0.005512722572120294,0.047613738368649905,0.17512145563118706,0.0027159160248438727,0.03393180301749602,0.07632590396200534,0.4971686445013158,-0.02475753999854899,-0.04674800536768355,0.008082807975020772,0.4007407164889684
120,0.06793315796713312,0.004151084578137372,0.043052695548404234,0.21635404068002753,0.004685546909824559,0.03405787600031348,0.0713617139847519,0.5787758506768115,-0.02946075100085958,-0.04410855196443785,0.008546547039707164,0.5141915354138522
121,0.07644022234874302,0.004354347058953854,0.04269351711716737,0.2357326074487511,0.0036987195131558993,0.034067466096330525,0.06649824087137586,0.7549360595414553,-0.03413697566579712,-0.04220267841807893,0.008515645975791549,0.6250459775029665
122,0.07778566177860945,0.004327617245874421,0.0373359690010247,0.14563342659047526,0.01250554280205487,0.03396936935222975,0.06312044488552625,0.8824199246111778,-0.03394659716854024,-0.0428620721889472,0.008513882693148463,0.7982196328188955
123,0.08055796349192013,0.004327307742791652,0.03229466290618723,0.05905720886484582,0.017130863675539357,0.03408449832950121,0.06539106094704164,1.0511375626483261,-0.034250040478500846,-0.03834069525297156,0.008462919087597519,0.9984076517836252
124,0.08598234289204541,0.004338783269572789,0.02990820684741293,0.18089830471167248,0.016783425750864608,0.02956518759668996,0.054151066414374414,1.1268202454977663,-0.0328154950651053,-0.0383388154072494,0.008767356892581794,1.058837563407336
125,0.08678348648009312,0.00427162305400761,0.030689020206417682,0.32395674851017436,0.018333661656847626,0.029900107109548185,0.051837611398180605,1.2244237145898764,-0.02706634197376208,-0.03842035790995754,0.006785108182038416,1.186815215514506
126,0.08212869520925832,0.004613864997216599,0.026889034493201656,0.4639320286376559,0.021239048449693636,0.029690108046040303,0.03518417501245856,1.1821048533058376,-0.02573617228677314,-0.037282991997309056,0.001042266993899423,1.2159118313946795
127,0.07776942752519532,0.0024098767364911025,0.021770726720590976,0.604632105171688,0.023955534326032132,0.03011170700909715,0.025192692451223603,1.0988155316456891,-0.022283568181558928,-0.03205776945260308,0.00019647626610894142,1.3021205458315628
128,0.07749523585760822,-0.0032687129610454546,0.021728005920040146,0.7425786848088005,0.022934373187999447,0.027717199570371658,0.01568348680916395,1.045224601284302,-0.02110953371199075,-0.027545774913498924,-0.003640811151635266,1.3374924723204047
129,0.07051780555280772,-0.004485621550144835,0.02099539375029668,0.9164029871784705,0.021142867445860285,0.02274777295116552,0.013888248967499864,1.0105622378309167,-0.021313719531800057,-0.022366869117198034,-0.00833345133333501,1.292032734478623
130,0.06236144146222453,-0.004307273535032163,0.0168135043637429,1.1700085312841182,0.02098876633361595,0.017601525912572132,0.015849090895224193,0.8372249268453078,-0.016298253025474337,-0.021018691825850092,-0.01732544689134314,1.245961699825801
131,0.05874300525540421,-0.004329208188650537,0.017738476597906738,1.1410637089476534,0.02553180558990753,0.017089535408406017,0.012426081731881922,0.6456538552073273,-0.007317559456054308,-0.021527052776837977,-0.017578209617831294,1.1634489277772095
132,0.04984578433187794,-0.004373380378965475,0.015304522338128174,1.1007569262454098,0.020967402916926045,0.012715531786413494,0.010968665166793725,0.4730769930674451,-0.0026897730424475905,-0.017000854554873414,-0.021764872321640913,1.0278568441519518
133,0.047145377365745894,-0.003925444711343538,0.010060513381940436,0.9502555340648151,0.02135713160138724,0.0031231778615105617,0.0015014409523816186,0.5194114963512978,6.85396996500129e-05,-0.017199775699366076,-0.02124334836754669,0.9242574911451903
134,0.047968636092172376,0.0032572221665997797,0.005447577985702753,0.9291353897849823,0.021545041183795122,-0.005662041068083507,-0.00015552336416869593,1.0552668229199353,0.0019999893764238953,-0.016086131518810706,-0.02086761272332349,0.8497025487253023
135,0.038718987510670926,0.00915681137002218,0.0002118523031798727,0.8315108112944327,0.019400596545038,-0.009120604455045015,-1.4027569340145565e-06,1.166932198378709,0.00707216779269653,-0.012638105378115877,-0.02421784062380082,0.7237673531371177
136,0.029400589166568514,0.010484790691379588,-1.549047747535135e-05,0.7466096230477433,0.016544498703243433,-0.00682063514563474,-0.0003860642863703324,1.0583132702441407,0.012252439669150949,-0.010948475380817783,-0.02582495424131488,0.5685070530867646
137,0.025907306483775747,0.01662117971564751,-0.004500244266469025,0.6176752436958327,0.017429563702851283,-0.018532190446110472,-0.004447275409507288,0.7604038863236504,0.01261696192540624,-0.00809313140430987,-0.025294420320607202,0.3541333201367136
138,0.02483549610998425,0.016800996122564037,-0.0051727419067900985,0.3871555135627904,0.013816718431134873,-0.026758815454424503,-0.005525464431593601,0.565468567502646,0.01708243727061421,-0.008627050895078656,-0.02984033184129267,0.24896542346544653
139,0.019648101080925993,0.025208670130597334,-0.00879957652777675,0.28620659874406107,0.008719859419018147,-0.02508312874321001,-0.008985151424220088,0.57298561626464,0.016831193983800667,-0.008392298927202113,-0.029712027674737254,0.06473820209221738
140,0.01421540238960532,0.030314609151168848,-0.010688882425313184,0.085029041200914,0.008547182238026096,-0.02934520601743132,-0.008395209302128961,0.44251111592727355,0.017920832985853712,-0.008719198710654777,-0.029815285986896898,-0.005811543955310493
141,0.013662520425851607,0.03075048360430456,-0.012930653035819254,-0.09315953753306525,0.008019128963407413,-0.03407979378193497,-0.008562673429483865,0.13587706015076648,0.022070809285593997,-0.004200564185064039,-0.02978512196856704,-0.06534055736391146
142,0.005762120820731098,0.03505586634291089,-0.016108324933572924,-0.1382338174341443,0.003859471565866417,-0.034423352364476405,-0.00841736749028688,-0.27245942164796866,0.01907696542834559,-0.003861614465165944,-0.029759127831748697,-0.17175549304781612
143,0.0041969610240380605,0.034589180426940626,-0.017547125003816128,-0.2098215239332369,0.004284816337208138,-0.03899193679442688,-0.008645303214830315,-0.2730053839676781,0.016816827399006282,0.00047124111719480796,-0.029910093760475057,-0.32056061558248233
144,0.004338410317399449,0.03426747144179492,-0.017206929590145022,-0.22668841534029052,0.004646963582975169,-0.03658985235581562,-0.004099400016013757,-0.21644364965295476,0.016618776533882926,-0.00025252201055972945,-0.029351289485738098,-0.40978862099936014
145,0.003890736228431056,0.037179600309672184,-0.02199157071340969,-0.31766083515598537,0.0016214624441810896,-0.03406083330721389,-0.004390773010111785,-0.46517393454734735,0.020796851632755332,0.0005902275547769331,-0.03348439746171842,-0.4206894525811262
146,-0.000473127662143771,0.03967101737564991,-0.026354295077662262,-0.4656745833251891,-0.00023976882961683173,-0.03151023219863788,-0.003952354016795353,-0.5047702201373254,0.021183259631594106,-0.003186906779358036,-0.034073010825549435,-0.479519165966223
147,0.00039600932876725426,0.03517670871447258,-0.025016474774080064,-0.5438148291281603,-2.5070161901853444e-05,-0.029505540140287983,-0.005957738776041581,-0.48780321773959395,0.02564832362122813,-0.0009974187182123012,-0.0340015540465569,-0.47768534008458446
148,-0.0017413925201347966,0.03459370656979743,-0.019354883650708744,-0.5584234061101744,9.565036043088161e-05,-0.02983049199400839,-0.009032060040971018,-0.44151852220554555,0.026061781705817123,-0.003227065252615923,-0.034661975444644985,-0.47721882013371897
149,-0.006821932494475526,0.034635111587609,-0.017451408176421337,-0.5261215615093737,-0.004576088381384309,-0.029784347238903122,-0.007979286796157349,-0.4320771036382483,0.030237431076731207,-0.008240201184774936,-0.038740278932557846,-0.4681065100496092
150,-0.012010543016279093,0.0344817097898508,-0.014462259159856073,-0.48970613173407035,-0.008750416686789898,-0.029789527432770118,-0.011941385470306563,-0.39834700452643446,0.02978258260158023,-0.01283345185504308,-0.03818031842732547,-0.4441293035851922
151,-0.013102219522817208,0.03574507117394932,-0.012688560252800917,-0.4746251441125804,-0.008471685700943218,-0.029748448858919915,-0.01291633639071549,-0.35382519801403084,0.029259964254981764,-0.01325265625560508,-0.03830422072119669,-0.41986625462547644
152,-0.013026217716987115,0.039400993382052274,-0.013190384611838326,-0.4281903338834057,-0.008295358967748308,-0.03004489796509014,-0.012798274286706367,-0.3145525485998871,0.03309163661753299,-0.0175309941044266,-0.03838186764613107,-0.3826477027262131
153,-0.013065604827872853,0.038963283583636356,-0.008617443758567893,-0.39670395357408483,-0.010158644647588479,-0.02818784869079976,-0.017321325561284483,-0.2869950215994651,0.030866461038199195,-0.016626425633054977,-0.038001276526307,-0.35916129911591704
154,-0.017578649216453215,0.03852813771561259,-0.004233687389766067,-0.3440870303142796,-0.016378586898095113,-0.02510029147156054,-0.01668642883438281,-0.2460626002530252,0.029661234452206746,-0.01880074955265138,-0.04190353472959319,-0.3269909582390246
155,-0.01743806324137145,0.042304789179177855,-0.0035271788883888006,-0.3206223506309256,-0.013761907462529276,-0.02565740370031359,-0.01851867332387367,-0.2299072888604381,0.02978762668084043,-0.02431627422283018,-0.04679626170245014,-0.2866101103700947
156,-0.0158703174474152,0.043489958483444044,0.0005827141373587219,-0.25518401770173765,-0.012905070100415627,-0.025401194477778062,-0.021697537139281298,-0.19860537794322947,0.0297072681711443,-0.02583189769906723,-0.046668236539211934,-0.25001060382009643
157,-0.012613099180982931,0.04322104744367764,-0.0005591352811821662,-0.21541573868494895,-0.008593224049228337,-0.025841363270210974,-0.021203758146732386,-0.1906221970048758,0.030545185158940173,-0.025177041106305698,-0.04764407536527352,-0.2100522377572145
158,-0.012752465346909554,0.047845762536308824,0.002722716697833289,-0.1830946627437968,-0.008679201344010803,-0.021381988535834,-0.021217802085501135,-0.15094245964903877,0.034810576643681944,-0.0297082782122221,-0.051513083781081354,-0.1884825227305601
159,-0.015651666306722052,0.04732014810744968,0.004439394255883677,-0.1536294439012901,-0.007435067739662059,-0.021324920256246476,-0.021486054375340454,-0.14010585305312967,0.032018467891266646,-0.029974347372291835,-0.05094422722966551,-0.18871462051514062
160,-0.02114302614635415,0.048984378525399115,0.004722197895217795,-0.1394392686846791,-0.0060519169658813324,-0.021251052410787095,-0.017267543818696014,-0.11849303386807207,0.029367303523537433,-0.03441284667076253,-0.05109954789503505,-0.16266454277973896
161,-0.021682634230406908,0.05201294759111491,2.0506913738905716e-05,-0.1117433824656052,-0.015269914244934405,-0.021284327328028985,-0.012855253280204608,-0.10322218614742534,0.030098087006399456,-0.03399608708601514,-0.051026605695545825,-0.1534383741023473
162,-0.021630020271338236,0.054216290402536296,0.004496465353917857,-0.10365358387425767,-0.019218689485362307,-0.02127824316002222,-0.017598429890052125,-0.08541198525980533,0.02681387871883736,-0.03367180496013625,-0.051160830543093526,-0.14260584650748534
163,-0.02204246553879624,0.056740135183371135,0.004679719804196523,-0.0736605709432659,-0.024031726894032268,-0.02125970018681548,-0.015871183748598743,-0.06851628426823832,0.017614745798892016,-0.03644828932778842,-0.050884106477970856,-0.1054134042091536
164,-0.026877398306456333,0.05581796775404081,0.010377022728065937,-0.0725739478892538,-0.02913762583857799,-0.021343964610565196,-0.010969736911226673,-0.06348056853213177,0.012728708494124092,-0.038132954393886656,-0.055420247167416455,-0.09528666106113355
165,-0.02283702087355286,0.060266451202302236,0.013046128311328916,-0.06564073774721146,-0.029864488007179904,-0.021052701245062044,-0.005728921105353722,-0.049374151437876414,0.0125350432272751,-0.04173345728249687,-0.05519594100785543,-0.08202851480714575
166,-0.01679178220412517,0.060603099598611675,0.014756214808864153,-0.04833826364559265,-0.029789222546172608,-0.021835437613899267,-0.004367619418179428,-0.04017914997564582,0.006216795217374368,-0.04237657774434265,-0.05561917799526542,-0.07478854277903055
167,-0.015257191684696232,0.06052872045735415,0.02081672911212948,-0.03945040375946867,-0.02967842075255044,-0.012833585339304617,-0.0010966296187819608,-0.032059841395871196,-0.001981782501076263,-0.0467783258714884,-0.0536365205900592,-0.07243922734227815
168,-0.00995268112539766,0.06140594335567589,0.02109886575988585,-0.034865023705986486,-0.03066515090845533,-0.012640016489810817,0.0038944468199304497,-0.027427937237739577,-0.0067235947889356,-0.04707895949594001,-0.051130167235559174,-0.06502269957876633
169,-0.004933411225533166,0.06572179136869855,0.02933169677538863,-0.03457782590292559,-0.034349500933462236,-0.007450705839407211,0.008638493604757153,-0.025148579597221964,-0.008436452061727584,-0.051287385604344836,-0.04818993125805758,-0.05082636804677344
170,-0.004186677331211766,0.06286550384219619,0.0346422036385897,-0.029945363952582058,-0.03505336414185923,-0.0029897780307340657,0.01294322606139138,-0.025888015977253074,-0.011428320475084753,-0.052185315584058256,-0.047380690546197486,-0.04682596899954387
171,-0.0041740376184584505,0.060123025220217036,0.0345710514353194,-0.03066734425653986,-0.04374357809785418,0.0023018456157072593,0.013158355811587268,-0.022087788993581003,-0.01633763705965177,-0.055917141258079686,-0.0393577230972422,-0.045892410543560615
172,0.005433176813253319,0.06113348465799202,0.03486201619512427,-0.028724790828099565,-0.047291286429556094,0.004124594766745281,0.020642023230309905,-0.0170647363340269,-0.021227208928359564,-0.05472353796116287,-0.0382079818228069,-0.04198242039675764
173,0.00860764869087418,0.05694024012503759,0.03321617026872496,-0.02546265475112277,-0.04673654482034965,0.007118313240677589,0.025957387992253333,-0.016781065366783785,-0.02152011158288109,-0.058425059638103974,-0.03780527857524375,-0.04313107908086469
174,0.01014829357213959,0.05623064408670023,0.029625804483742614,-0.02640825681768095,-0.046803132470479715,0.008827052547042658,0.02761430525808728,-0.012580033898914603,-0.02565086596338709,-0.05938108675487608,-0.028519055383731395,-0.03967828287213963
175,0.013117743475671025,0.05630603918476607,0.03135978699026809,-0.023054208437010823,-0.04678177467869545,0.00824143893916083,0.03338866394375422,-0.01152970483039078,-0.027320504940202762,-0.06347786134398459,-0.024233611173254337,-0.038515864330571734
176,0.015114338572419263,0.05564105331283682,0.02372973302055143,-0.017674388000201272,-0.047308470555806746,0.012785725228984194,0.03398981796826059,-0.008721471979985043,-0.038288263057418115,-0.06382192335295067,-0.01986097932115152,-0.034470730458468206
177,0.020450921851820895,0.05251174189473208,0.021613553778849617,-0.01730508383186024,-0.05149196828674349,0.012991703348786552,0.038084784256562317,-0.004212858582402022,-0.04499646727887239,-0.06388075566631468,-0.012000744291193605,-0.03409282890234522
178,0.025039875648245138,0.05689854023844857,0.01758672365891118,-0.017366859687661867,-0.050917684099701585,0.018297603584965925,0.04718906458282512,0.0031369199347119616,-0.050159274499112706,-0.0635862013119869,-0.007849858282196585,-0.02961589722639141
179,0.03014690823538101,0.05599528551466999,0.01270820966293195,-0.016700400873389806,-0.05120049345048028,0.021689041701897588,0.046455479654006544,0.0077921294382323845,-0.050529610737940496,-0.065330024668874,-0.008945556626171513,-0.02934183136817595
180,0.030353215302406786,0.056845433604832143,0.007884411884312263,-0.011546473918630602,-0.050630808766336056,0.020781955613590433,0.048081672781341046,0.008636259813338787,-0.05873640320124302,-0.06800128980117191,-0.0046761915103327055,-0.023750036927542576
181,0.03543701497176727,0.05275784455753826,0.002792864695431824,-0.006341150455124036,-0.05416740659316103,0.023823891668362396,0.05181709336698141,0.008541302859804693,-0.06388043262930439,-0.07099435611022785,9.586426784235828e-05,-0.021016665151964046
182,0.03923122356168734,0.05248164454440614,-0.00033830772965429893,-0.0043808228932554856,-0.055778768829979675,0.0257801250936862,0.04883387603498399,0.013338840366288192,-0.06831852365682987,-0.06943886525188724,0.008997361413155158,-0.021099565180296327
183,0.03905255197933938,0.04355905587800401,-3.341303229754581e-05,-0.001638445981647281,-0.05120179326588929,0.025582769138875607,0.04395317168732182,0.018262327949420714,-0.06804917877444824,-0.06827142957470583,0.008369617515761442,-0.022189939633419937
184,0.038146824145129946,0.04321727202385298,0.0004452293379066277,0.0034514111759966146,-0.05115263498256796,0.025348772238073317,0.03884193021281822,0.02140145252085746,-0.06777820250969525,-0.06400803399549919,0.008256107305540111,-0.014048267090364455
185,0.04415326022028403,0.038081594620462865,-0.0034971111971842687,0.008451042083140684,-0.05046071110890402,0.029872830864950226,0.038271114958861444,0.022780368190824848,-0.07011179282846448,-0.06368511765043933,0.01042621089273829,-0.012822388024490216
186,0.04830308773131408,0.03320033733899818,-0.004421261722836899,0.008612116756359952,-0.046105736240230656,0.02967628793103622,0.03834800805336006,0.028513713439281167,-0.07262298525995742,-0.05434305839661412,0.013474695286078439,-0.008394932904086992
187,0.047164921230953324,0.029811516339438817,-0.0043304582841734406,0.009091100693805242,-0.04859817693857621,0.030027010806520777,0.03733323572466318,0.029987251736345283,-0.07258073098124108,-0.04985037878870786,0.00996983043488955,-0.008618058903024165
188,0.05171686292333484,0.03089429174127088,-0.004339953328547965,0.014386856784847305,-0.05148018743082052,0.02843281192921153,0.02817515375311291,0.029733359797703217,-0.06905574001903275,-0.0467458965659559,0.004734239196764258,-0.008407109873134148
189,0.05192555076588154,0.02720925535553944,-0.004205544809849787,0.0181300861352285,-0.05086031906294569,0.02390186495308624,0.023521820301850387,0.029827685240832378,-0.06391843838784271,-0.044847839965981164,0.004181648847877716,-0.008880305420838341
190,0.051970690861784734,0.0264407963289971,-0.0050280377468366316,0.0145219881201102,-0.05148392824026196,0.01564526852251518,0.021776733203045986,0.02995819906208623,-0.06368996034754817,-0.04215938952974384,0.00407317378065352,-0.006309931889409467
191,0.05192863434000269,0.01858784510001287,-9.562252654419818e-05,0.015623413751371246,-0.047251547624281055,0.01263799748549879,0.01578066012606511,0.034380237015445354,-0.05917758231211866,-0.04265907901397071,-0.00028129371861103017,-0.003919299251780195
192,0.052012389757065736,0.012959398966455059,0.0046065760225651965,0.017185483165886077,-0.046786662109981246,0.009427147733891581,0.01229756725215357,0.033925451101806975,-0.059965861621105995,-0.04245192689673447,-0.0002215263462735893,-0.00431551056641418
193,0.05166123102958715,0.017495166306556266,0.007419921581976964,0.021176346735070208,-0.04657619451239468,0.004491746847308887,0.012827072810379547,0.03407534851965843,-0.05787575902419029,-0.04269449129210034,0.0019868767774670667,-0.004248775518046042
194,0.054009421949536056,0.01786666141000552,0.008829249535049113,0.021654230196364675,-0.04137985160332501,-0.00021288920571108146,0.012764812133567066,0.03403456404401306,-0.05494497522477395,-0.038161223203046435,0.0024631933937963443,-0.004254876587796882
195,0.06007868282463866,0.022856138062860826,0.008645249422200177,0.021639912224526166,-0.038265408337919825,-0.005361535567222793,0.012769938130249715,0.03404424723309001,-0.05527621550435737,-0.038386747464880557,-0.0005106927397117285,-0.00423176480949342
196,0.05735194578692304,0.029841205186337965,0.008650128231033772,0.021841537139949976,-0.03655865902081949,-0.015750325900570985,0.012711495174498742,0.03404229589177576,-0.055738180327765674,-0.03826808500303701,0.0003708223549193308,-0.0044594609413955285
197,0.05223975386377556,0.03685968531495859,0.008708109504588385,0.020284977174425192,-0.03362659374636459,-0.02161731370664403,0.013087665382618633,0.03404246419320963,-0.05142578007628767,-0.03829973103162982,-0.003553501636753761,-0.0028992405213185933
198,0.047438467350266716,0.045272472583356864,0.00835363712936749,0.016804351947579982,-0.03412596731941635,-0.023263968251246984,0.010800445034943382,0.034042615247790516,-0.05108374695556883,-0.03832676744049111,-0.008489963087076002,0.0004222724731416458
199,0.043117630370291926,0.04760984139272613,0.010518400000906786,0.01766797809151461,-0.034035759632761536,-0.026002914173818597,0.008254950608161317,0.03404463589102959,-0.046365306868171766,-0.03817543043849338,-0.008703908923404753,-1.1318472715483906e-05
200,0.04284054226160843,0.051551153787256616,0.012971309530525704,0.01639293793012395,-0.034026709988397824,-0.02515174060642915,0.008141753671344693,0.03402452981588494,-0.041106880286195406,-0.03871924159962209,-0.013940016571238154,-0.0003063474536811497
201,0.03572876662380127,0.05192073811961407,0.015766379960474284,0.024703921672987652,-0.034032460912448735,-0.02900311722861848,0.0121269207930212,0.03414766081019957,-0.030627132661911898,-0.03453454303403422,-0.017427819142925596,0.0032809135684308283
202,0.02785041857371097,0.05270866404894389,0.017824183327600454,0.026065865870884206,-0.03448420981660904,-0.03396875412097117,0.012814893587181487,0.0335341382778701,-0.0247381746032369,-0.03401626570011589,-0.016543498025171466,0.008359619355475925
203,0.023345532194368256,0.06225763991291856,0.013570048130945585,0.025949065788876628,-0.038484640078782446,-0.033993217709100416,0.012764276622268927,0.036966849686996754,-0.026178121471153424,-0.034029268302174065,-0.01947216874593652,0.008441838884452798
204,0.01916169280970942,0.0655103055837494,0.008645711906616562,0.02657324584061648,-0.03959010901140166,-0.034188345977146366,0.012911384886285368,0.03552833655352624,-0.022335438935447385,-0.03404918446517352,-0.021684407572754395,0.009117773289212133
205,0.009730926350934255,0.0627520924491716,0.008291623842042616,0.030674737478106368,-0.04301891028034819,-0.033136734429768354,0.011663639134637256,0.033913194058809,-0.021517452626060238,-0.03404215632985516,-0.020861001438416273,0.013202819743568238
206,0.008743663852372458,0.060699542452592264,0.003907364108399746,0.03058331532301657,-0.04247219111863963,-0.027631416833475204,0.008046271110393343,0.0338702905511691,-0.01720875900715936,-0.03403370135771922,-0.02527335883451906,0.01262060517160079
207,0.00425832157588071,0.05752576560081571,0.004363379123525361,0.027895060528351476,-0.042478611418240025,-0.02512001990675361,0.008652240506099907,0.03838081526573009,-0.01689044328021272,-0.03408376086284606,-0.02550633054400151,0.012904568798462407
208,0.0037942358788895163,0.056070517167235726,0.004750502121453849,0.02613502814817368,-0.042834983286282775,-0.026027810550534956,0.008367236194858829,0.038189734719212,-0.0073943563839503484,-0.0338831699344149,-0.025659396800751452,0.012335856515845367
209,0.0004961693347328161,0.05634251548815949,0.0015473195876634287,0.022461972968497657,-0.03863367948515856,-0.022213520746591952,0.00890823439450343,0.03850672086470072,-0.004064508104443603,-0.03456933619231893,-0.03314001091258346,0.016064469690924073
210,0.005029822237333813,0.056413953813122274,0.00017723494499298953,0.02178985025257573,-0.0338295036059166,-0.020971914594045075,0.004644301272013962,0.037102516007098095,-0.004328201103341895,-0.02988870813836985,-0.043784515123203416,0.017373551852925623
211,0.0037196826793677693,0.06081404256009024,-0.003721220575594981,0.017308353251393696,-0.029668369342252487,-0.025475307483852856,0.004258789906608661,0.03153939519923975,-0.0041575710869690835,-0.034017683537083065,-0.04234982029679498,0.012760101386452801
212,0.007128561998057286,0.06134201070601782,-0.004361646121887884,0.017522615257745316,-0.028871217194860254,-0.030027082225795223,0.003847498130521584,0.02940784779468617,-0.004596604455103513,-0.034541701902310935,-0.04217290748890758,0.012801612620718775
213,0.008477743215747914,0.06665201691868733,-0.004285554590037123,0.01619231850628016,-0.024996218955955645,-0.029090369577673945,-0.00039622796025443063,0.030253677882833067,-0.0014364059934362844,-0.04397539524496247,-0.04574686880666348,0.012972291946757676
214,0.012303679401572976,0.07180444153649967,-0.0049817290479137735,0.01388916367276026,-0.025881948505199738,-0.02407457305163526,0.00011392009237201236,0.02607707497293695,0.0038437583178864954,-0.04804734335836641,-0.04703055445960019,0.011264909793240619
215,0.01303816290419004,0.07364153860285357,-0.009091176378947106,0.018292908641420025,-0.023596360391032297,-0.019323085451886116,-1.066474969809356e-06,0.025466832959854652,0.0043066456393459985,-0.05302722708549757,-0.04669960299659301,0.008485271495266837
216,0.012964597694554719,0.07437160472472727,-0.008638954316871096,0.014575441023557819,-0.014957843315418226,-0.015007234091310792,-0.00011561756195395779,0.02522270955508874,0.0045108407880185015,-0.05753636358118382,-0.05124023224856304,0.006006836620459289
217,0.013486761862993567,0.06609654111691245,-0.008226447329871244,0.012624384532747304,-0.008812585882377391,-0.005984810550653237,0.0004345391843211824,0.021637339948447926,0.008706668031929968,-0.06297231836490642,-0.05096028630297726,0.003972767158772951
218,0.017751207265548265,0.06093424278196791,-0.011645265276553879,0.01336019801417027,-0.008473613166234772,0.020401866534601597,-0.0036842362481869766,0.025815936970793065,0.009500807863859831,-0.06339867480532616,-0.05115091111185211,0.004297673116497626
219,0.017165764169191883,0.041433866348238514,-0.013080476742993286,0.008802997255787176,-0.00833957117516054,0.037604304425568745,-0.004294072564409169,0.02709909410471741,0.013635655405601684,-0.0681908019517465,-0.05077599790407526,0.004252383550864724
220,0.01746063839637916,0.020591607212583157,-0.013221746278930083,0.008701997137411736,-0.0032599493540687416,0.04259811585507333,-0.004267197260698258,0.030347374364834423,0.01031022321757475,-0.059494815003914105,-0.0529528693124892,0.0042546953739027536
221,0.016849903575628992,0.019288800205625005,-0.008637052633117339,0.008632575962271283,0.0003789017043956546,0.0533831278836039,-0.004247579859320442,0.029242038752238988,0.008251655736166798,-0.054026821363698435,-0.05853602207719686,0.0042526417470191286
222,0.020487171190854785,-0.009940252840375334,-0.008318963867994774,0.008666555998603349,-0.0003577023616709589,0.08394169032284432,-0.004263417173999447,0.03323210375473664,0.008455710187328675,-0.04107449599156236,-0.059732848514845074,0.004275375992663919
223,0.021876891187473765,-0.05863196447017498,-0.00381987032225289,0.008655668036337967,0.0018350591385588176,0.11548373640020483,-0.004225363814163155,0.034152771964850046,0.008749538982118228,-0.034489321376454773,-0.059538599675347484,0.00415316124519518
224,0.021506993334347323,-0.07787188476334544,-0.00480386133055861,0.008658565620789408,0.007552711941320606,0.14460750085180082,-0.004383334450859326,0.03404722586451332,0.004242405621268624,-0.02107025896996969,-0.05957079063657469,0.004700917780054194
225,0.026200734161650623,-0.08834685509854995,-0.0022184789067318687,0.008657893420810539,0.008262614263111893,0.15258446968548328,-0.0037684546835223716,0.03361948166431379,0.004325717324771387,-0.01174934158448593,-0.059963870046379326,0.0013279238808987977
226,0.03039082443111182,-0.1325025355674747,0.00032921569136859003,0.008658028143678614,0.012348907581792095,0.2077837862130287,-0.007826809717538574,0.029615749873808345,0.00422593603176787,-0.005710662349687817,-0.06423671480071876,-0.00019662949215211803
227,0.03127619503270242,-0.18565658512455918,4.866014173297357e-05,0.008658006891815685,0.012771092723684164,0.21785582174820384,-0.008368443711811804,0.02843055167859472,0.004265823591487999,0.0026045931486631344,-0.06368418566901894,1.7908735468832664e-05
228,0.03476860849608115,-0.23307379474295406,-0.00032258047974110713,0.008658008936253759,0.0126555531702267,0.33312024753729247,-0.012814321774885538,0.025440021821903153,0.004245131768909593,0.011810125694374372,-0.06397149648852032,-2.7386129338216933e-06
229,0.03662686091221811,-0.2741756321155957,0.004185204497064618,0.008657996273534488,0.013890380490337625,0.37140763738741733,-0.012644347370788366,0.023208923996205142,0.004288578918301862,0.02567405161590374,-0.06336657954746044,0.00012257367138985328
230,0.039235729649045356,-0.3324648329533259,0.00427947833358058,0.008658102184722724,0.015119953184332947,0.43091410602213914,-0.013096289808511455,0.02053050051088403,0.004136911677776385,0.020566126647162914,-0.06694708892110508,-0.0009954351212045325
231,0.03933149428259871,-0.36028046707141775,0.004400371592934848,0.00865749532139068,0.00591897280757632,0.43071886890149935,-0.0109004749588502,0.024974346451125087,0.004604104471126063,0.022740495275048466,-0.0682465822010131,-0.004378161543735635
232,0.0352689877774866,-0.3906021871058391,0.004034478244825332,0.008660386340641413,0.0021165181309529464,0.46234163339296497,-0.01027349134895223,0.025538200451625907,0.00019899874734619245,0.002467124583968983,-0.0680708694761799,-0.006198613060819229
233,0.03459035496424204,-0.4529038029345904,0.006101542573328224,0.008648387122362607,-0.0032752232679942447,0.5318022597422088,-0.012766819576632626,0.025395191002262864,3.2878215475261283e-05,-0.023012520793248836,-0.06808255060382644,-0.008981902890320123
234,0.03466799123928745,-0.4652427846153441,0.009070024308058937,0.00869152273875015,-0.004368938130195016,0.5445617448515231,-0.015888013594636256,0.02094021832781408,-2.37569546117996e-05,-0.033315109829188956,-0.06808958691957988,-0.008125634749969093
235,0.03394815819453485,-0.4965054019636905,0.008569997812878746,0.008566979965927255,-0.004301183793367261,0.5364545667999404,-0.01725040222386423,0.02141346597351484,9.838571179084891e-06,-0.0468306994178571,-0.0680659162242033,-0.011950950228203408
236,0.031110373607054834,-0.4755923657696837,0.008680471649539511,0.0087554381120911,-0.004314424349577519,0.487476307918158,-0.016924085619114165,0.02114578418498461,-1.0182248331472483e-05,-0.05024172660052396,-0.06818212763290715,-0.016946962721759187
237,0.03371635357211725,-0.45201568624070904,0.008638985029003341,0.00420153831200897,-0.008679373655738008,0.4610873846755853,-0.021465983459216142,0.021721172354149786,3.563991074351495e-05,-0.05496398487044139,-0.06765090975138854,-0.01698315254882848
238,0.029597440362948705,-0.4343685639765834,0.008649566100918434,0.003705202795014153,-0.009316223963133667,0.40454238446427215,-0.021178762542187562,0.018490423958570926,-0.00013830989179210168,-0.06422390701380187,-0.07086087117086974,-0.017039955836025338
239,0.03089973068964114,-0.3936982653155424,0.009084125400729408,-0.00046866316190094547,-0.013239552218792139,0.34429049416315743,-0.021312410608970465,0.016819024868125792,0.0004679102847700055,-0.06870656994611979,-0.07257225232077281,-0.01702057259524933
240,0.02707667301138928,-0.34372132436533004,0.01340447900507362,2.502497986483487e-05,-0.012721760238245654,0.31241829115699504,-0.02124724755547454,0.016977293542513417,-0.0039374402821458565,-0.06482128938604241,-0.07230877284530797,-0.016994894323024277
241,0.025794993733222953,-0.3007127855733198,0.012863998852223791,0.0004269756937206677,-0.012460058881009874,0.23355974061735013,-0.021368048180133412,0.017075112214423364,-0.004173943051199351,-0.053503066921225084,-0.07234158770785583,-0.017141404862782025
242,0.026027032575420567,-0.2347605612372516,0.013010161814447372,-0.0030416828388340057,-0.015462283511686704,0.170798811592147,-0.020941613149373123,0.012527668220040469,-0.013499119179279128,-0.043472887041360334,-0.07234152689802742,-0.016570597744201877
243,0.02608690652204488,-0.20924012165461167,0.013015400023546843,-0.004515820865576586,-0.020825372658190778,0.09951202720314196,-0.02444586482849544,0.013071067654924233,-0.01724339604928615,-0.023481448944624173,-0.0723399564095301,-0.02055064407860818
244,0.030866287707841097,-0.15074210795833984,0.01286285454065343,-0.00431339085034314,-0.021308674785290405,0.0623933293721191,-0.029561199509094,0.011381055457072676,-0.016650821899963864,-0.0031698124165856494,-0.07234026753007075,-0.021348176752371807
245,0.02835499285441927,-0.10668927040657478,0.013339602013994804,-0.004333895228747493,-0.021264897963918044,0.012657897240318933,-0.029724950213493938,0.008465582329806659,-0.018952659314126572,0.0057864650486066024,-0.07234196993498998,-0.021282768842714943
246,0.019568662440639706,-0.07263523841471894,0.008770575280390174,-0.0041988890355227826,-0.0215404536039126,-0.03765515150859604,-0.03078293180342523,0.006181977521665019,-0.02133807597576381,0.037751829842371604,-0.07233365956299379,-0.02126158231993467
247,0.014934196778709066,-0.023741204827377235,0.008518618869445842,-0.005344043740131292,-0.028072214285310468,-0.054025331186937475,-0.03926160718982146,0.003967181861065216,-0.023732098454850355,0.03868508574193014,-0.07236575416650563,-0.021343397044801298
248,0.01292407032818652,0.012330616917117251,0.0035725418891126293,-0.009131714672638727,-0.0348087639460187,-0.10178967075861281,-0.0374187652620874,0.004207946053184545,-0.0292663226473808,0.05256543940054971,-0.07226125625129566,-0.020930178016023877
249,0.012128002130675851,0.025414868669890366,-0.002422170712889466,-0.008510711530417187,-0.03396853825400532,-0.10590498990445113,-0.04234702005650458,0.004461281140617897,-0.032981688112342575,0.058441763930813136,-0.07250612506734495,-0.02339974214168856
250,0.02049074793434434,0.04308394688042865,-0.011270394310013815,-0.008808194218573347,-0.0336001420308876,-0.13414442468223228,-0.049786373401494215,-6.047633862789381e-05,-0.05131478460313279,0.07243394673398428,-0.06797202842952389,-0.02599882751713021
251,0.025109313977313544,0.051418556363476295,-0.013191557518656694,-0.008227377325771418,-0.03740654033465409,-0.14943717397589718,-0.05441992026509276,7.827872647937764e-05,-0.05641791609028628,0.07986126072194534,-0.06329352494867894,-0.02505013783246668
252,0.04829247001880753,0.07199220566049877,-0.0129714363002952,-0.012521586472838828,-0.038182979067558895,-0.16204371830930647,-0.055574678326773534,-3.0218264311999897e-05,-0.07145624086505026,0.07811132372325233,-0.05818939385186732,-0.029337324466523096
253,0.05870597428143603,0.07369053352274024,-0.012903065413261226,-0.013002853440859087,-0.03854767048112159,-0.16688807811945405,-0.05121533181932572,9.443240732309388e-06,-0.0758691937883027,0.07662196355424811,-0.05554582013844725,-0.029802790308537056
254,0.08339497791998177,0.07380316125470411,-0.01319144046061001,-0.013003538382455685,-0.024964518444328888,-0.16215588429032377,-0.04192825824918203,-4.891628089702503e-06,-0.08432166749328339,0.07306860764033064,-0.051712880059614,-0.029808664805350153
255,0.10093069096082581,0.07914040882003444,-0.008607862336754856,-0.012975686458854543,-0.025772455826772664,-0.15750859090775618,-0.03740970926168649,1.1238549603841562e-05,-0.09763277518472212,0.06809014227691439,-0.04243758919191492,-0.02972696043233672
256,0.1251054350461811,0.08137964494782308,-0.0033695270478544433,-0.013011855639252251,-0.016258373734404155,-0.14830836540909534,-0.023251536029658647,-3.7926367958442445e-05,-0.09979445100495499,0.06749223009483908,-0.025722300327387326,-0.03010243982752533
257,0.15146485602535636,0.07735979741636173,0.0059398754588012356,-0.012877287343427994,0.011470856595450543,-0.14336669267135438,-0.013016950507397302,0.00010631424377885223,-0.11325517003794666,0.05853222339203334,-0.014098005252260798,-0.027871179409140155
258,0.18203248894851634,0.07808736881706001,0.00947452780085934,-0.0134476839207382,0.03441659012123424,-0.13242101764691708,0.01431894590473553,-0.0001450130679240243,-0.1188317310478098,0.051566573294429215,0.0029677845035699884,-0.02524607040389073
259,0.24167218574527083,0.07776977845191009,0.019057519060403344,-0.009873293264213007,0.041265870305104896,-0.12848613229425224,0.03360451198255892,0.004251270642599782,-0.1277106730234184,0.039213981043473414,0.03545010254809029,-0.02524801414105125
260,0.2843273024433521,0.07833332805199054,0.031076503551933924,-0.008476197692953647,0.07544477163138737,-0.11846571139251796,0.07761875647457236,-0.0008928343317503014,-0.1235760249434562,0.03901637228060502,0.0494579964016864,-0.028852153719545623
261,0.30907976085941674,0.0739756807652285,0.04426342690997008,-0.008689279070544273,0.10931463836843303,-0.1067668085615812,0.08932364796162989,-0.005848012335877143,-0.13691446823036488,0.03269556155688556,0.0773680817710821,-0.03369983720634958
262,0.3681599455223598,0.07359076667145775,0.05431738529024283,-0.008704002302834959,0.11906510066824517,-0.10322807716841437,0.10753332453428423,-0.00810600774016884,-0.14324623537004966,0.02623041039048987,0.1060441296239656,-0.0383615281627775
263,0.4324528554845011,0.07358385542553608,0.072951467901924,-0.007974485126106042,0.17158390210343577,-0.09822336798847114,0.1293179929350443,-0.013128500233271329,-0.15993016357469958,0.02166584234669033,0.13885369503026562,-0.03866724696918685
264,0.48230324201482777,0.0735299990552387,0.07777455474609689,-0.004777693118616963,0.21603593061169737,-0.09352057994276572,0.1330703149242716,-0.017197565666335932,-0.18230132366983343,0.016920801153510964,0.15794492503586077,-0.04388590022134421
265,0.5362119300501841,0.07399547244623485,0.0796645851902322,-0.010544497074778812,0.23725265141744634,-0.08408464880373781,0.1591668067392168,-0.020410700374821636,-0.21278932034947487,0.0076985533942011235,0.18575087340742594,-0.0484128838846445
266,0.5915687280995843,0.0712475058500899,0.09400016496643644,-0.01550872676704047,0.26439810378223655,-0.08153412243781309,0.19588333251129245,-0.02113911781521182,-0.24113145372730832,0.0032772225458194077,0.1945884672396558,-0.05359422698153126
267,0.6549807724043827,0.07140709941086945,0.09196847813328947,-0.017686070886954838,0.30803170633476407,-0.075192345933622,0.19501282655116808,-0.025521814677778133,-0.2510242345897648,-0.001219393009481823,0.22542748807326782,-0.05570891154357211
268,0.6822417897986701,0.07390403258282705,0.08350075121151573,-0.016959867179757764,0.3371733684610635,-0.06244534652267461,0.16589380948576607,-0.025353056329290052,-0.2698369381648315,-0.008215258241568062,0.2536180447037544,-0.05484117399457024
269,0.70881766313752,0.07373073354586138,0.060382413131278984,-0.02097387103447798,0.354422241942314,-0.06175252557372949,0.15065803225019012,-0.026488260795398975,-0.29159386233062434,-0.015626670492751998,0.26050165921619084,-0.05923337227991228
270,0.7049411726841354,0.07319404835700714,0.042325222931182,-0.025959561487569022,0.3302183702318246,-0.05899978740855278,0.060020797788473135,-0.02966138221951808,-0.3311336300359665,-0.019901233554239662,0.23963391779866516,-0.05956557683638518
271,0.6775730775843029,0.08239920723508373,0.00934893689461626,-0.025819001259469242,0.3106020623290988,-0.06027655360078592,0.02268632404721454,-0.033236033402732124,-0.35546274224833424,-0.024763230965335198,0.23271405083869473,-0.0643744062706197
272,0.6247878267182586,0.0819750433717122,-0.05717844670889645,-0.02692479354824901,0.30791207008695687,-0.05165184227601696,-0.01782455534169825,-0.04115482116759721,-0.33753864569098224,-0.02941263752470427,0.22188116511276032,-0.06905178517259442
273,0.5817681946338468,0.08321046357968356,-0.11434394720759712,-0.030287208632582,0.2749893097390605,-0.04665789175440561,-0.07812784616445599,-0.04572315369936113,-0.3067305047325087,-0.034090593441914556,0.17656993095899562,-0.07374611720262443
274,0.5301809111138633,0.08737322422498446,-0.15251204531208698,-0.03332625859703544,0.25663046668207906,-0.0422488136107317,-0.16418992659961804,-0.04706089415999338,-0.2928141244946368,-0.03444615916580121,0.14666286022329997,-0.07900720244256623
275,0.44497223562600996,0.08438050827497544,-0.24708526859812782,-0.045043216164884055,0.2193005796951679,-0.0428951278659262,-0.2323214279279068,-0.04660552193320399,-0.25857784785885096,-0.038992754170804604,0.11530809860697369,-0.08072700209340108
276,0.3683756748684863,0.081894976057946,-0.31435275904083815,-0.04770029547941698,0.18516110350085654,-0.041001682259474634,-0.3662845272769184,-0.05113318512479762,-0.2018698670724924,-0.036620551417478324,0.012529566553247055,-0.08379165816209501
277,0.3134102628018794,0.08236037180625409,-0.4009851153072481,-0.050894929326865644,0.1696235391829879,-0.037874469957170614,-0.427456150070589,-0.05152763517048047,-0.15505655868084878,-0.03375756723390446,-0.09235256119979154,-0.08565602843066496
278,0.24150494379796075,0.08211853214551602,-0.5151877651131054,-0.05619441560836178,0.15004868051334627,-0.038389917983974314,-0.49388076060183717,-0.055656988452072315,-0.13069137148225382,-0.03367293027396301,-0.18204995387769785,-0.08094490881271148
279,0.18243755734558795,0.08244077718146703,-0.578962149538584,-0.056443556415755276,0.10805779797776084,-0.03828797551780948,-0.6692302116492128,-0.05582762586195156,-0.08424005102559928,-0.037226436324378304,-0.31665826419946896,-0.08057753991767162
280,0.09590264971689047,0.07799886845631365,-0.7084614839783734,-0.06081015723443395,0.08820731415466607,-0.03827715717474714,-0.7159567689098402,-0.05135377284931994,-0.028601977025750742,-0.03844645210503188,-0.41438686300268823,-0.07102580036625174
281,0.05418687465997056,0.08209016419697282,-0.7944700897271859,-0.06165106314064397,0.0602325920177831,-0.038332250129210765,-0.8216310950205523,-0.0438222691570979,0.03658293911523307,-0.03828657908199205,-0.5215786738129413,-0.0678301784189254
282,0.007530029801987448,0.07730916581820108,-0.8150722657028288,-0.06533320007532224,0.050244082370689586,-0.03847757979154585,-0.866241840912841,-0.03919455766225447,0.05124820720124456,-0.03829497645082438,-0.6925108610551554,-0.06843730498932211
283,-0.0019287111972892711,0.07818654208293857,-0.8872627260057068,-0.06525834360658385,0.04064404438542472,-0.042904079681634746,-0.9642571073412969,-0.03809216751903235,0.09295319775312523,-0.03829979132455383,-0.9767551802064174,-0.06611306382545333
284,-0.04678503390660126,0.0774471525662019,-0.9413746299158356,-0.06205211588771787,0.02416695153023301,-0.04236004599517475,-1.0704766953122107,-0.03839314898281992,0.11475138446119314,-0.03829635578215066,-1.0320721469702583,-0.06102278202935785
285,-0.07897756182002187,0.08072129031558181,-0.948545015948064,-0.06030526113183701,0.01829468223730962,-0.04297679553514274,-1.1580773730927296,-0.028583032632370622,0.1259801763431417,-0.03830267802507223,-1.1720436746331897,-0.05619303150566237
286,-0.11539242166901295,0.0826005772812923,-0.9329675105482265,-0.06082765864199793,0.016432275689427345,-0.040222357641252725,-1.1767950883998726,-0.016198573682876572,0.16609809787697852,-0.038277204122925866,-1.1738364782244233,-0.05178908401694399
287,-0.14228178818351467,0.08192031128617441,-0.9156745646245401,-0.056238357474520995,0.020834280033269856,-0.03841876383951345,-1.2856473413827796,-0.01661565856622856,0.18111378049393664,-0.03837905210887005,-1.2419505574495544,-0.04250207184161798
288,-0.14274004954811378,0.08650575867667248,-0.8865946824548089,-0.05140671202868342,0.021297319263380583,-0.035054282078513056,-1.292978518345146,-0.008912937728961394,0.19674462979746915,-0.038021578563512334,-1.2904182344989945,-0.03753133477065431
289,-0.13629199090314065,0.08652586134848593,-0.8568187400361715,-0.046613562964263604,0.021317590595446197,-0.033910232495984516,-1.3379187458978725,-0.0016722348615698488,0.18646911894078536,-0.04170426253931843,-1.2787119307090742,-0.02739876434894417
290,-0.11772584160514933,0.08660693376111082,-0.8336455670259233,-0.041379139160561414,0.021014055024910952,-0.03404900166194502,-1.372925862992499,0.0032089473580940472,0.17754403089729534,-0.046822509885375424,-1.252093158201093,-0.019466763307079374
291,-0.11052113023833508,0.08656993624764439,-0.8087067467078368,-0.038946180809861675,0.02295168348151915,-0.03404657266791076,-1.3031423504491542,0.004145408991218199,0.16721364450280407,-0.042315067740184155,-1.2246529793119063,-0.014756463941756563
292,-0.1073421833335085,0.08659001374748142,-0.7524879920291531,-0.036731319388739136,0.023434634686863784,-0.03404051907795725,-1.2771227914347456,0.007936394436613045,0.16576578877754963,-0.04271810252952009,-1.1705429647132486,-0.012327641708696126
293,-0.09335047436110357,0.08654676564979571,-0.6995869306842031,-0.031446790247821516,0.0254539216239521,-0.03404328988246325,-1.201975115183104,0.012786243695204738,0.16145830250007417,-0.04222633156249462,-1.0541639069442919,-0.01329581825763231
294,-0.0802743744878093,0.08670471149711559,-0.6494837023919968,-0.02669468956138688,0.030639993710162627,-0.03404199693104255,-1.1541232543610187,0.013030447708940122,0.13869396538156722,-0.04432361958667749,-1.012204704089681,-0.008942361180281177
295,-0.06691352022437372,0.08617842987457593,-0.5973732985316244,-0.02182650099832428,0.02926671638805257,-0.03404422892608105,-1.039191424443715,0.018344082954278022,0.13618280263755378,-0.04717782424996124,-0.9110215638789981,-0.008614326606225228
296,-0.06061000557569823,0.09055653022413801,-0.5488698467911274,-0.016928992505617205,0.033707206278283955,-0.03403628603882375,-0.9449665647679814,0.02169334914594092,0.12612948327172632,-0.04685424398494365,-0.7826109213307497,-0.004276467595067422
297,-0.05538739654607468,0.09090690443823177,-0.4949026188102314,-0.012872580971470217,0.03403981366805864,-0.034063066012246054,-0.8683058304595532,0.020783144643513753,0.11000792268200946,-0.046394900255008434,-0.7409324083321409,-0.009147685870675309
298,-0.03275282221596755,0.09083353440444829,-0.4634240817984824,-0.011862860074261752,0.03405957496855765,-0.03399286076847938,-0.7481825697331304,0.023871578394658116,0.10099406215118586,-0.0507442319434377,-0.6374040236733473,-0.00715177628357176
299,-0.028538543354859638,0.09170080902180595,-0.39148981101547226,-0.008170980781798731,0.034040127090781115,-0.03405474120823945,-0.7160065621103188,0.025901955831529103,0.09519336638570502,-0.05105177508894523,-0.5453664187303271,-0.0038716454520946577
300,-0.019299754980414346,0.09603070170788894,-0.36161775494140336,-0.008773179300348655,0.0340170462610476,-0.029186317500236075,-0.6007588877595202,0.0251799560451408,0.08358199090724722,-0.05559840829875635,-0.4110296491605545,-0.004233175126134288
301,-0.015634507756847566,0.09314088640949734,-0.3069404538263807,-0.008634340594563037,0.034173724771645375,-0.02544211537104537,-0.4757709510486177,0.029588446449455758,0.0683893378082159,-0.055007728625906874,-0.18863433822914127,-0.004686776918628425
302,-0.008036031786621625,0.09057354464972787,-0.27245296540851754,-0.008662004511567884,0.033492879068219336,-0.02433672157682703,-0.3867775368714313,0.02957122167497924,0.06785248180914978,-0.056663619842940195,-0.35943697436163213,-0.0007719864551623949
303,0.0022122675601276855,0.09089394577523635,-0.2253785581610121,-0.008657569752615547,0.03745884698244738,-0.02068296987413495,-0.3588531666815301,0.025209753659555294,0.05836824547621326,-0.060012887019840554,-0.4633446910899946,9.105753225126419e-05
304,0.008306471595872464,0.09116186343437335,-0.179451022852596,-0.008657985782964395,0.03518826127977056,-0.02190247125524986,-0.31345470716598667,0.025674572885250154,0.054165166657711844,-0.059474350244092235,-0.3982154084477033,1.6483178007766277e-05
305,0.008684970211347414,0.08703065851201008,-0.16545943035756833,-0.008658032917478157,0.03008239426761224,-0.018018077570616763,-0.2388516511200445,0.025330093523291092,0.0496487157511689,-0.059586355439672854,-0.18902828960677578,-0.000348174779437757
306,0.008663989895639199,0.08220668750538776,-0.14250698510618004,-0.008658047532170263,0.02535414247012164,-0.017591048884379894,-0.20510690246454716,0.0262983421439395,0.04234626053976574,-0.059599530002034856,-0.15972261323087353,-0.005636578215100411
307,0.008651333356776784,0.08192063649665268,-0.1121128136298865,-0.008657735855332645,0.021176915671657897,-0.00914375192618314,-0.1834313134024754,0.02033779045161713,0.035205269579714656,-0.0595131038890861,-0.1334734506882031,-0.008827037830763967
308,0.008678209714928409,0.07660474452212108,-0.07888560669961131,-0.008659278991415073,0.020324887310439636,-0.008540921349334762,-0.1401029815584759,0.013203192073064359,0.03099851660105994,-0.059525431154243504,-0.11665918621436039,-0.00851864199412397
309,0.00855967079621453,0.07233027124360401,-0.07542600317811393,-0.008652897420911878,0.01686845869749992,-0.008265718306688739,-0.10054600474732416,0.012736291406970057,0.02577823427385062,-0.05512158950928464,-0.09515465195876968,-0.008157690818500218
310,0.009099652083735683,0.0650500248964233,-0.05356378767155359,-0.008675662962644697,0.015116957449589116,-0.002090360940575931,-0.08013958557947491,0.012758594518649417,0.025555378241172693,-0.054774838771560336,-0.08518688399834043,-0.011468661279676728
311,0.005902815206759677,0.057409338283330155,-0.037862793499731574,-0.00861090808097238,0.012126653336051054,0.005117571785043689,-0.057549360226587284,0.012419058021895978,0.021036441269598364,-0.049065438990974354,-0.06970302490150009,-0.016329581357682803
312,0.004164567938571457,0.05395274572725951,-0.02437443911053386,-0.008701951458773626,0.013734096147132452,0.0037458813591187746,-0.0513892337023736,0.008275915437895172,0.02133045944058316,-0.04690126943153958,-0.044982273454422135,-0.021232241639913836
313,0.0040981725718442896,0.04120987278212463,-0.021929150104787458,-0.00925092525594777,0.005266413489209229,0.006409903908327143,-0.02830028674396039,0.007567394099514127,0.021568326141148293,-0.04434847723583208,-0.03598893212835092,-0.021544912991079506
314,0.00839130111564391,0.030463096350028012,-0.013240472934064117,-0.017752127431107236,0.004301786605134824,0.011851388093548307,-0.012668699678764689,0.0021472923433851613,0.0193170031452969,-0.04217684074378902,-0.01971190890740764,-0.025568303425747667
315,0.013268559406541567,0.03020323327437297,-0.012850856208488439,-0.019350506482227824,-0.00017520561332058307,0.012984478724036281,0.005879748302344579,-0.0021691332231333457,0.0169557373715284,-0.042853990934901116,-0.017203670414320096,-0.027873850794600547
316,0.01743531616788183,0.025063445187111587,-0.008383583526789407,-0.028799635812655166,7.36613666638799e-05,0.012579564121954424,0.006581695071039309,-0.008003842740590173,0.014540033173185233,-0.03870047183551808,-0.009421870572854082,-0.03529544308103007
317,0.018296799725232255,0.020589660114309988,-0.007745260543545065,-0.03061915298230929,0.0001670206952399925,0.017119300877077324,0.01869031502689654,-0.0050122448648103266,0.008912575992424392,-0.033993226091015724,-0.005084075034000755,-0.0317028432231406
318,0.02208478046537027,0.014323019955373694,-0.002713218673347739,-0.029722630003622505,-0.0013150782023617347,0.016958035075433475,0.021199953970530237,-0.0043255271285235885,0.008664454323423774,-0.033686167770112026,-0.00052128282678062,-0.027000743117628175
319,0.02176362364297426,0.003222917488047425,0.004620210233965582,-0.034197312028311666,-0.00680061668708856,0.01692104756571248,0.0248605577440794,0.00016855309431031156,0.004183643744996752,-0.02860160193374831,0.008765724024263363,-0.02172962819861996
320,0.020705942560965307,-5.0937791073445496e-05,0.012212909771715713,-0.030818399977515114,-0.009202833108016097,0.01770319397595894,0.025418202994027344,0.004868707212001476,0.003983614108287662,-0.02360017256975736,0.0128196276602468,-0.02143774914980027
321,0.028305898699242504,-0.0033037398821895887,0.013087929017225908,-0.02591316137123798,-0.005150391663013569,0.012845241608773926,0.029895249995469244,0.009645819536376932,-0.001519761419372782,-0.0212392612438927,0.013522197127627804,-0.01697145509157322
322,0.03026873900105168,-0.004472785746254477,0.012982201645771187,-0.0259995044912686,-0.0040714664596258,0.007697870293154824,0.029561646612504967,0.01441525169090224,-0.004181262733359712,-0.019146661148841924,0.018661756185084505,-0.01621009467021074
323,0.03444348226085766,-0.00431486198593836,0.012991495302378975,-0.02616873095169134,-0.004309086843616237,0.008996557008326977,0.030844275789625078,0.019018726744837226,-0.006528393534545226,-0.01352445364743087,0.02381777647496099,-0.00656004223434571
324,0.03456353019413675,-0.004106583500087312,0.012804222730649937,-0.024576209582581252,0.00021238179003632256,0.0050209118221037005,0.03449821391452062,0.024380615449016478,-0.007928498209528503,-0.012705182722627667,0.02535766512547316,-0.004238318197004255
325,0.03498186126432679,0.001176841392506581,0.014502600599825425,-0.01967281224126351,-9.958274588880989e-05,0.00024417712710783125,0.033901375484681966,0.025278594898954013,-0.015057967419501996,-0.01271341309700657,0.028724690852637094,-0.0028950623668005334
326,0.04127839519036257,0.0044386662996738465,0.024975703357283583,-0.012222575067381026,3.181430696289269e-05,-0.004320946803179114,0.03418679754787018,0.029305003319575074,-0.01697101664050927,-0.012427973407149323,0.029934484955872705,0.005522960549818977
327,0.050023547683351155,0.0057133157796875784,0.03471739511065674,-0.0019181295252337057,-8.703082493586936e-06,-0.0048609227757001085,0.033631761888161756,0.029749658922801417,-0.021170719304541813,-0.00311724539269773,0.029772237124736676,0.011939478671300293
328,0.052265450883353326,0.011429366572010269,0.042202132299712224,0.004140493782865303,2.803370246880708e-06,-0.008509606179743558,0.03784034917769396,0.034492976408898875,-0.021390897432365986,0.001288412386576277,0.029720090629280535,0.0163438936469288
329,0.05155460926319533,0.013550304039242312,0.04357882907485545,0.0042937624457059145,-3.411912442331965e-06,-0.011317120360523595,0.03832040633509501,0.03841637913717732,-0.02664962942769279,0.0047410692284106356,0.03046728609866964,0.021254832822658803
330,0.054805532534631315,0.009794999012523347,0.04287753723514115,0.00886119521703869,9.610360686246137e-06,-0.020085310417215473,0.038656280731924224,0.03919925446575808,-0.029818007797061633,0.003779428994902606,0.03449266340594354,0.02155350308543272
331,0.06018302000083858,0.00459458490940891,0.04757318097050057,0.008958412693841079,-2.1293303187211828e-05,-0.021513933736227203,0.04278934514589884,0.04440524798779735,-0.03146062559769937,0.006831854531078362,0.03389903295820788,0.025947367429183847
332,0.06064478350451897,0.004343862920265437,0.0481954069813022,0.016138951862482914,-1.059887482785137e-05,-0.02095181334776122,0.04345509182008849,0.04945010898071822,-0.03446820171322735,0.011275706428918222,0.03416741837255447,0.025380853825326004
333,0.06065592492625362,0.003879833216663675,0.06244759029853244,0.02314703001076398,0.0005197077056861226,-0.024758152669584615,0.04921336649594281,0.05128397987802827,-0.03394793486358831,0.02029961617208733,0.03367084230497325,0.02567392492906905
334,0.060076162586788724,-0.00024865868171714233,0.06478610293139146,0.03382604175097206,0.0037391157100503253,-0.02974908879510915,0.05129998848903423,0.05112707585567334,-0.034078019040846855,0.02535380105760956,0.037203291298481635,0.02506989289529276
335,0.0553188350267401,-0.0009507354122545334,0.06640166116430023,0.039896788022262764,-0.00031486017899549077,-0.030007720414604467,0.05113762568015454,0.05082363352525062,-0.03399470023186452,0.03443774671287335,0.04205806224871991,0.02862209572442482
336,0.0481880066098237,-0.006934110430576445,0.07170896325776042,0.03847136606657297,-0.001535665091611873,-0.0344914902800055,0.05069480758863005,0.05533703249965831,-0.03402849558541116,0.033635159144894705,0.046823947420806776,0.02995504523957138
337,0.04329971093611145,-0.008442358302672908,0.07647070249997288,0.043100827364713205,-0.006699589736707045,-0.033549299710419464,0.05515923238979928,0.05535082362615011,-0.029096258296173443,0.03558140561240383,0.04675087567736869,0.029767355465614587
338,0.03829363038248321,-0.011847024978832325,0.08121938561484097,0.043273837426614115,-0.012013672463387541,-0.03622651470676874,0.05543295854320141,0.05448840940197542,-0.0254527264107409,0.037073945482734315,0.04683577686975133,0.029765677791596647
339,0.03125717531725903,-0.012901015184735342,0.08632667624999986,0.04308641450203053,-0.012287476769079032,-0.03635039617841635,0.059963738015683,0.05053663376616051,-0.02421359427073379,0.03308871627674247,0.04677968455862756,0.03005469390025587
340,0.02640581087123616,-0.01689977330176512,0.08657405119927122,0.04488909781345708,-0.020650108706028892,-0.03367520059918292,0.05923450869591561,0.05147203442563053,-0.020806053280157298,0.03704556026354541,0.04691285252690614,0.027819727369668264
341,0.026026826999569153,-0.0217205952863924,0.08648836178151571,0.044926773847861944,-0.025576252880140697,-0.034004685721605275,0.06100817145831662,0.04898299220896358,-0.02141147695009398,0.03848869265420532,0.04638448925149016,0.01895914220204021
342,0.021277991478335062,-0.021583923778468416,0.08745149722478078,0.0364029944604962,-0.02553304868761811,-0.03429452424955693,0.06601779634727324,0.04320904670942772,-0.021148549217213784,0.038273813288084386,0.04981759462440423,0.01506798311384703
343,0.017350556222350537,-0.021667315820035376,0.09171956979154067,0.029503191518847054,-0.02528001975254426,-0.02979740406543786,0.07129733549295676,0.04303675077113624,-0.021594705510037483,0.038298043852194555,0.05156914517087823,0.0094253587116148
344,0.01541302682587886,-0.021638137412215572,0.08870165319763905,0.019140469487251077,-0.027174273548362417,-0.02976022491730927,0.07208861292916646,0.03458587550340329,-0.017263722380800307,0.038296770495125095,0.04698580195790048,0.009044653650497381
345,0.006471135449560345,-0.021648859504401166,0.08620754385697724,0.013050028022068658,-0.02979685166015493,-0.030565003048795125,0.07624217831344107,0.02971795350234731,-0.017245949763023245,0.03831576390676756,0.04683956739961603,0.0010455145280165628
346,0.0017898410769017425,-0.021635692841093363,0.08676089828413484,0.012992067120392668,-0.03235711966047594,-0.03447674815058535,0.07659476672521123,0.029985057592717846,-0.021052402310937093,0.038192607995842766,0.04679704900209552,-0.00425435015392325
347,0.00028173438262002904,-0.021676309535149266,0.08624826145393447,-0.001559265196592987,-0.03442411548083646,-0.03405806077806805,0.0814960406219083,0.028631810465531603,-0.01621735877855806,0.03880420831157486,0.046746296042565284,-0.004226401918724164
348,-0.003681029447263273,-0.02155890382551144,0.09078060673385574,-0.009148357787270134,-0.033686955770888524,-0.033489528241361574,0.08545442482615039,0.025434335261703828,-0.01880292515723386,0.03539478309682511,0.0471695021958886,-0.004252901673431059
349,-0.0006756404001300193,-0.021753067475472856,0.09082673782570026,-0.008480678065028816,-0.038178292788477626,-0.03752597984913062,0.08467040049572631,0.023464356785057885,-0.02166025284878289,0.03675306394585086,0.044599421048701564,-0.004338660830080857
350,1.617588464179363e-05,-0.017142127269135173,0.09129733135185399,-0.00883666748862762,-0.038257206455632575,-0.03486542328817603,0.08723053076684324,0.020792452646325014,-0.021185805540588045,0.03853427746680884,0.042213821164110384,-0.003843182517291969
351,-0.00017863136489316598,-0.017413010881428825,0.08839170515873271,-0.008068973609606853,-0.03827812650905726,-0.03415862527011843,0.08927623002744768,0.021758873402859376,-0.02132078745731597,0.03827270584925643,0.04262324390804699,-0.006841887440585676
352,-0.004639677700315083,-0.017279693857495896,0.08171206913337498,-0.012284150497860006,-0.03856815986485374,-0.029732538391625856,0.09242274486644038,0.017449758264855543,-0.021199780501188904,0.03829782717337063,0.04252298868532295,-0.008777120951590703
353,-0.00447394451083717,-0.017345124215047372,0.08011093485032023,-0.009496228969013495,-0.036588653340585885,-0.029869286787744354,0.09385051950237323,0.01701083276561189,-0.021325861985091267,0.038264902337436756,0.04256786335944242,-0.008470723371780427
354,-0.002726744405030667,-0.01722527842026248,0.07740448997471953,-0.008472525524019354,-0.03366233489192209,-0.029755057441525817,0.09350080261303345,0.017085842855452112,-0.01678142540606191,0.03855427336044884,0.04287730140270906,-0.008512938797094157
355,0.0004417654749829974,-0.017659400741365627,0.07848496294593034,-0.013132415717009644,-0.03400779882521693,-0.029796843361482733,0.09817070703342617,0.016272060674127748,-0.017308012733855873,0.03668772591998249,0.046998388542153005,-0.008507676375843964
356,-0.00010549292741585159,-0.014285537907464781,0.07367277168586926,-0.01290331970698348,-0.03443263094364202,-0.029784764343289836,0.10302208629698009,0.01231165098501243,-0.015748382502236275,0.034432165250395115,0.047970150361141065,-0.008554120004456251
357,4.880788650952556e-05,-0.008985275471644875,0.07797497772613582,-0.012996075903144323,-0.030200443431907958,-0.0297877921414062,0.10673860518726695,0.012886377611498839,-0.012119484034303242,0.029001636185395262,0.0515450691819581,-0.008230656025659342
358,-8.732417022552948e-05,-0.008642759215681932,0.07795019150980531,-0.013082262106765906,-0.029777716998232534,-0.029787134794877507,0.1062851757283725,0.012740040660897659,-0.013744678170427946,0.02498733117682273,0.0509522209971152,-0.010250104464249312
359,0.00011649230801683268,-0.008317842848628841,0.07695354082060278,-0.012536748952961155,-0.029747774504461692,-0.029787216782111145,0.10640633640135015,0.012763041007915883,-0.006835952062356397,0.025548565558733426,0.051083771325548775,-0.013139349779318221
360,-0.004503617734179376,-0.0039433390981512455,0.07346171487688159,-0.01594902692683128,-0.02999108909027559,-0.029787295267472088,0.10637812010634386,0.012791942796482965,-0.0035864334006553904,0.025657060245871662,0.05106912559862996,-0.012804237421990553
361,-0.0040339916010821075,-0.004444708374771169,0.0716047251485729,-0.0175194776031362,-0.028486151073603118,-0.02978740346480953,0.10638382434610967,0.012710516007461916,-0.004916636869022339,0.02107294310242115,0.05104544589284113,-0.012386959255481313
362,-0.005750281947727343,-0.004325613157651893,0.06890622416499367,-0.017296755539485648,-0.025105799527862713,-0.029784610004050718,0.10638285873871507,0.012693829127441646,0.008706279705837903,0.016367948973898906,0.05103947299036482,-0.01669333508108935
363,-0.007373822508204291,-0.004213703642811595,0.0692186529411572,-0.017318041184104,-0.025542465463589428,-0.029805068008963643,0.10638296194667732,0.00821658865116272,0.008279411646626938,0.011663287568473811,0.051650698962742624,-0.017014315980277483
364,-0.004214475072593561,-0.00478628936744455,0.06958462668493737,-0.017203488185061046,-0.025862679266418137,-0.02969307976497513,0.1063835669531551,0.00862250296194069,0.00858401288136413,0.0066046372458000244,0.054802172191230084,-0.016928648050649663
365,-0.0017147771481879261,-0.0007593819446211189,0.06504980311410628,-0.0182461812804763,-0.022336499158543716,-0.030215137182115437,0.10637857021067385,0.008479595545068688,0.008569419413419722,0.003916527361737505,0.050390590093273,-0.01793375876379128
366,0.00041982659431401845,8.073831420104725e-05,0.06491691298182382,-0.02214291616376006,-0.0173895039071983,-0.027098683733846694,0.10640728750260685,0.008510245086660994,0.008125854051232041,0.004330340232073111,0.051633144679152324,-0.021737443587802663
367,-0.0004480321250265242,3.585375637702873e-06,0.06564614147671056,-0.02138123905522767,-0.012666267088371068,-0.025303292486875156,0.10626995422068425,0.00854406175368095,0.011041299687864119,0.0042409856502349345,0.04837339852564146,-0.02115984990668494
368,0.004312399371007438,-7.668526131532776e-06,0.069414230681182,-0.022262479427517384,-0.008601805757599426,-0.025502071306186265,0.10684200386599324,0.008387159815392438,0.013463216077494816,0.004257459898244512,0.046559020829809054,-0.02130247335878514
369,-0.0002030552454248345,1.8274209141778292e-05,0.07104646810141577,-0.017923888547646278,-0.014235856642923997,-0.025622509181391154,0.10315768382939451,0.008856176475832924,0.008988294908235252,0.004255175535768525,0.046847111765605104,-0.021271641641857256
370,0.0001260705596378434,-8.916462142755781e-05,0.07357314339061709,-0.02097171985662751,-0.016968996417957356,-0.020959457637953496,0.10199750814448554,0.004357445599587962,0.008516934210962657,0.004255325953424679,0.04680384470249653,-0.02127748325380386
371,-9.342253999363051e-05,0.0004131483832106672,0.07650762849224703,-0.021682510055446032,-0.019089537237933125,-0.016319557424447514,0.10212814630061665,0.0040880566439731045,0.008772081352344568,0.004254748256343859,0.046792535282356114,-0.021276349274173923
372,0.00028278106559079903,-0.002589780989396763,0.07809944744440728,-0.021657246444601895,-0.021094327027793538,-0.011249128806351495,0.10206202215690872,-0.00037903857424917854,0.012436588576265159,0.004259105591118024,0.046974648559826686,-0.021274660298236697
373,-0.0017884619010823059,-0.004740510465906427,0.07798003135818186,-0.021687765380732502,-0.024742482222100643,-0.0084088360437167,0.10286564460087137,0.00012844419646563802,0.008219768087068811,0.004235975814551393,0.045649877961032016,-0.021296166813946454
374,-0.007439968767242219,-0.0038873346590760013,0.07798786639981245,-0.021329507368449904,-0.022161745712288995,-0.0068611945676170264,0.10655952999956395,-4.088241905414958e-05,0.006973322015357211,0.004340983951321886,0.04209983665385478,-0.021156408923615515
375,-0.008922343657071601,-0.008540855543296989,0.08197196790484576,-0.023585569841885833,-0.021048711659388878,-0.0008849475984270607,0.10796900549817079,3.400635010292884e-05,0.0036886014245176434,0.003919997492658206,0.04265408149547106,-0.021874194655653552
376,-0.008404121906416134,-0.008891884556499774,0.07834513126864663,-0.025920608652741275,-0.02563152659547944,-0.0005810711134664175,0.11147971695839781,-0.00010022218947906264,0.004814777506181277,0.007167648452424838,0.04256296743290901,-0.01798008412352392
377,-0.0127384607961239,-0.01835238269445524,0.08280922167559418,-0.02892342465775195,-0.025593820253282648,0.007360311415331718,0.10769247010659698,0.0003222629424784355,0.000795910595157747,0.01243116650905428,0.042449952100579495,-0.022677779853880108
378,-0.017376819746076442,-0.023415866772798454,0.08240362640498791,-0.03050827313868503,-0.024530167368800353,0.012675057614941426,0.10583199495621283,-0.00369592896663033,-2.4335889040854068e-05,0.01277851755525794,0.04280772195029693,-0.025964929026258333
379,-0.017925756161116264,-0.034561614599044985,0.08006158106911229,-0.030280190058515993,-0.020739541914883766,0.017277697202250468,0.11037663265790398,-0.008506859459558726,-2.1254544868083876e-06,0.012759048053776943,0.038300024058928676,-0.025471872484510712
380,-0.02176521439035612,-0.03894222187194945,0.07433637686952711,-0.03029986036723153,-0.021710198817197126,0.023505595517339762,0.11062029100944083,-0.012944407214202928,0.004436543188392656,0.012924916850076185,0.038357884034913504,-0.02550746763729577
381,-0.02356784109711217,-0.04353637412972501,0.07361821782636378,-0.030341723659421893,-0.0189671976780151,0.03657888222744565,0.11065848871737505,-0.012874572106629924,0.004808775784672542,0.011648759437941745,0.03833000528772863,-0.02602368936919643
382,-0.02410566547518795,-0.05448970419323736,0.06962639846587977,-0.03003757698109611,-0.01354525541255467,0.03810931061440321,0.11063068484813467,-0.011508758202547775,0.010164850429903931,0.0075483170154993055,0.03796139723134346,-0.030191735715872983
383,-0.02159378120970788,-0.05996143857520647,0.06052461580018785,-0.031972284811580196,-0.012575891868099272,0.040259609548107034,0.11064053383665735,-0.0076447344404700825,0.014486673055470746,0.011498950193870745,0.040362592990367985,-0.029759938216266248
384,-0.01863435352273945,-0.06486697162968431,0.05820396877324743,-0.03462654685935534,-0.012874259521375265,0.045448199372056367,0.11063762035240485,-0.011175866094611651,0.02040497818381689,0.00981761578575392,0.04242112200163755,-0.029382494381647063
385,-0.013910093713761349,-0.06507001985428575,0.040105860275888784,-0.03732729525870417,-0.008464473857756841,0.04999357040907333,0.11063892652880239,-0.012897771331409819,0.018059130409711705,0.011285657778975014,0.045771342804112616,-0.03253619779144101
386,-0.004663064749103028,-0.07037494751297817,0.039436845020928146,-0.03917453568616497,-0.007171821234640664,0.055027264561203416,0.11063653341145176,-0.013106715211384706,0.02013318437963921,0.016781000111562087,0.0463794843637922,-0.03419082374023815
387,8.575401731316667e-05,-0.07371047292941536,0.036387622490387836,-0.039048063498466984,0.0004105273868343622,0.05532016007799591,0.11064286245130428,-0.008683591241172081,0.02527181500422051,0.017022105537356825,0.054683724627578555,-0.034249860944157565
388,-4.5548633630845185e-05,-0.07486589694754467,0.03490347970022504,-0.03886595960952919,0.0029482498061479006,0.055363665671690425,0.1106347157946702,-0.008405785636889582,0.030022052700780403,0.01705795459518783,0.05958720727324536,-0.029899114173193585
389,-2.3508549662627557e-06,-0.080808215767655,0.03075845812469343,-0.04292191109953127,0.011263111011953892,0.05506461995309825,0.11057582205484655,-0.004022318284750895,0.03404214060683312,0.016811054058561058,0.06010464870149379,-0.02504071592623725
390,9.111089817452752e-05,-0.08211695249797976,0.0342093099779139,-0.033657109815111136,0.015756698308757682,0.056906161157335405,0.11125377564556108,-0.0035397664373864783,0.03582324110124572,0.018361230693122878,0.0640758225980459,-0.021347028634995203
391,-0.00042357604859635665,-0.08536298569749383,0.034600675490853,-0.03546915358835542,0.01729344897144045,0.05841431842845034,0.11633888211145926,0.0017847038216755283,0.04481231385983737,0.021694124910891933,0.0650001744132641,-0.018818908171939205
392,0.002732833830666256,-0.09040330041986344,0.03512901056368314,-0.03105274792098532,0.016794652943433012,0.0528494153218871,0.1213352935075813,0.0064623692878728965,0.048788716467119415,0.021294225239394844,0.07041770188348438,-0.011683995707700038
393,0.0048043222740988805,-0.09522006925271159,0.03925127415262679,-0.02308725089418461,0.021253372454778877,0.04773105440977621,0.12378927357508968,0.010872445048295756,0.05390917240106134,0.020847750222728764,0.07477983701853479,-0.013659226897180564
394,0.0010263779037668435,-0.09444841167766733,0.039731645055788155,-0.01864111268054581,0.02596190741140323,0.04703054789315206,0.12306781731222914,0.018678744397514248,0.057929716340843686,0.02480446875644725,0.0804071271268091,-0.007456848488348614
395,-0.008345358272613384,-0.08603823379749988,0.04764901376596082,-0.01418325651388073,0.030945815438921213,0.04285658468197708,0.12646773336150954,0.02912525154832994,0.067306331750945,0.02560394449718162,0.08009414842193502,0.003044066498790827
396,-0.013088676037379872,-0.08531545398094503,0.054878230694630034,-0.004894546732880535,0.034173886418683797,0.04257034924530053,0.13539659027041331,0.02976227124060827,0.06806026390501026,0.02553168984243157,0.09335066409306013,0.008059221927032215
397,-0.01281772204900844,-0.08247048272438916,0.05946718263450322,0.00015452132162228452,0.035426335446820986,0.042498940412438985,0.144807513446853,0.03447156554846355,0.07269574733434733,0.025640628258767152,0.09847224319066787,0.017336714621363103
398,-0.01385714005594435,-0.0776817238703824,0.06393913201617003,0.005050053962179009,0.04123098059187659,0.04280034975756838,0.14514808355532224,0.03927575758318524,0.07833991000561502,0.02463260367497709,0.10698039907334739,0.021478550075074578
399,-0.01948053897410526,-0.07037565188694629,0.0733018328972576,0.009853847641350996,0.04255190433274397,0.04104267095972075,0.14902586420925223,0.042961205783035306,0.0856898762649468,0.020752852840955047,0.10708003635834631,0.020953009874972253
400,-0.02184062681849234,-0.06550590345907863,0.07820746864012604,0.014739769627797581,0.04532294497234084,0.03815602309611556,0.1513859202110536,0.042243858004344936,0.08638557480982814,0.021697255721807703,0.11304683606794097,0.022953323104025713
401,-0.022040901189162306,-0.0650240697090372,0.08313268505136745,0.019426282966285405,0.0548280882710453,0.03630792255115895,0.1624028811634023,0.04420297114210548,0.09187615033680716,0.019130849593386325,0.1148177520287291,0.02575383805444793
402,-0.018324367668617718,-0.06046401540769035,0.08786946042422593,0.02488363202696693,0.05526422332787276,0.030504646013760614,0.16884930698720083,0.052553151318416466,0.09634427794717917,0.013616033973162722,0.11743564895524669,0.02729058015686465
403,-0.017159703451106515,-0.055999217857701004,0.09306091071968955,0.025745117458880164,0.05593712342298103,0.030022529019393868,0.17347564464701967,0.05924960500202418,0.10151361131236541,0.012678559626754748,0.12257126210873516,0.036851208252022746
404,-0.017350466082730182,-0.05683142737686752,0.09566578944243036,0.029835317324564233,0.05903596389062956,0.02574622337076317,0.17794446232665154,0.05939543278062275,0.1022085991330808,0.012720974871359399,0.1271707429053074,0.038191892222632896
405,-0.017534035340330344,-0.05325124756176711,0.09476574752809694,0.030318060631034587,0.05475788375652574,0.025554252944649077,0.18715483584885126,0.06387735168339234,0.10214441416168993,0.012602554010315795,0.13193694778249804,0.04253044117041345
406,-0.02206842685758862,-0.0467370358416289,0.0986212625463991,0.0306973167163972,0.055392001374552455,0.02564348964405071,0.19707161807730283,0.063760612671781,0.10165222747551016,0.008726529296915177,0.1323232852425428,0.042826211185945304
407,-0.02109291458254019,-0.047827053278345584,0.10319485389371505,0.03481816503356627,0.055587751065298216,0.024540355677939534,0.2102146379327876,0.06379169162729802,0.09771679245876978,0.013292012174710661,0.1363775098706742,0.04723223599167228
408,-0.024158078204745685,-0.0475429233798124,0.1126304818251341,0.03588641304255847,0.05271313865375501,0.020722916074071496,0.2138807254727808,0.06419897402408853,0.09638090360403753,0.012699469480502275,0.13750684785994968,0.04669485190556412
409,-0.02168096270081804,-0.047733878419972835,0.1128996995101531,0.03949449177050347,0.04690197765980635,0.021810994713032814,0.2197089439033058,0.061595177236570986,0.09386499437962362,0.012399366787925989,0.14086530876927197,0.04675517651295639
410,-0.01734048010609417,-0.04744717216592309,0.1171411344114636,0.03863796403783441,0.05086731120485533,0.01859064406751619,0.22017386824243892,0.06002618502784879,0.08898001183523675,0.01536341270099689,0.14043966697793864,0.04716627131520635
411,-0.011195328227614869,-0.051970478472652674,0.11817136344887597,0.039754161032389046,0.05106401141770414,0.016660790824193708,0.23063884336982,0.0536445535568162,0.08125205001501452,0.01757801492621259,0.1400224654569759,0.04401979902972131
412,-0.004542415087939779,-0.04651380953057345,0.12209323526106669,0.03193044080189372,0.050512831960710304,0.017377107944467226,0.2343241415712165,0.04732072918748483,0.08116536895545855,0.013608618206531094,0.14406593443150184,0.03909651410914254
413,-0.004324447002535687,-0.043545508444303285,0.11849274679772384,0.026031522168633095,0.04635794645651197,0.012895861895186846,0.2378479272566758,0.04282353538324391,0.07668838537310615,0.008577015403103617,0.14477409461469776,0.03420160072094382
414,-0.004391357985163001,-0.0399908225603432,0.11630450263228959,0.025865755097532587,0.04696244239890231,0.012807666559516078,0.2473409187587959,0.03818168762693132,0.07626800819331384,0.008319824880406867,0.14496094810533752,0.03412033715880703
415,-0.003605015213647988,-0.03409329358930461,0.12045098650647154,0.020685309820324214,0.04665071952209558,0.01275284422533146,0.2563246423645718,0.038380479663935416,0.06734238683774553,0.004101783382179816,0.15514100520182764,0.033382469357463716
416,-2.707870904637466e-05,-0.032419580743162285,0.1253833650947374,0.016940374931199355,0.04731552949260153,0.012702430852891041,0.2607353719046747,0.03819550236867146,0.06851767074093006,0.002925998973014464,0.16207566791061312,0.029619468226157623
417,0.002864933701983137,-0.026845484985862905,0.1302799458605863,0.017675553750630384,0.04335900071924423,0.013128506062510885,0.26560750992102994,0.0387044417773121,0.0667606473640886,0.001471449632552122,0.16320997976702595,0.028247976305441222
418,0.011895563223743397,-0.022683615167134397,0.13431255586684993,0.015455347733346104,0.04280492727575403,0.010547045729019992,0.2703461820186826,0.03590734587935411,0.06093750917214723,0.002900214261565533,0.16638260298022936,0.024964956499095418
419,0.012762630459772162,-0.013088943368357697,0.13533327336702644,0.00961159555829684,0.0383108702339432,0.008087330463257186,0.27507278110867855,0.03420550582635252,0.06023590997955251,-0.0029206544845942315,0.16598294911333805,0.02611547687830385
420,0.016011481684810678,-0.012509417034814794,0.13902279837903272,0.008935777089588808,0.04281149116799246,0.008874148212113847,0.2799671446052077,0.030614378737613662,0.052896243957752685,-0.007324135812107768,0.1655682945266154,0.021987110067717284
421,0.020948879396596974,-0.0038422744461396965,0.13837810326054045,0.004648675543120054,0.042412783002714574,0.004978448268309288,0.2843795476722037,0.029942975031879492,0.05076520980092111,-0.0124224550308106,0.16980710787297676,0.021445419395432312
422,0.025917483695935065,-0.00242849963976622,0.13868419503959886,0.004319330778454674,0.04267290777353113,4.630330874918153e-05,0.2936515179543056,0.02555743204598394,0.0510937968647677,-0.0127746479476004,0.17021914421851492,0.017010085194576273
423,0.026196766476507476,0.0072397463081181265,0.138105418478547,-0.0002826581954012241,0.042154525222639454,4.125269721716323e-05,0.2981920313289336,0.025576202254313302,0.04674042171036327,-0.012698880818478142,0.17022352915463712,0.01680384923881414
424,0.030381810375608814,0.008349039301532482,0.1426072941008519,5.933099769905689e-05,0.044916321645635846,-1.9831988383971243e-05,0.30429867784149617,0.025707185512184476,0.04546252384251164,-0.01351787826116519,0.1702593037082911,0.011447327870438126
425,0.03226836844126336,0.011696091491354133,0.14289976322857686,0.00030048566397225545,0.04708608093464854,6.697285272254681e-06,0.3111238318675554,0.024188080538414564,0.0362937259912941,-0.01726293169421253,0.16990268298223832,0.008178580517823966
426,0.04132123931093333,0.012850678001383384,0.14750018483632577,-0.0020472552976105807,0.04686918872804477,-3.3339528027138686e-06,0.3124231537861067,0.020928253933078383,0.03214918326328913,-0.01827269415004345,0.17211649315919106,0.008623889140582068
427,0.04543710172776752,0.01681044347153893,0.14706439218639747,-0.0047001703643590464,0.046545758147769976,7.3599561010223995e-06,0.31542295389146063,0.0209591604792655,0.027772599133774105,-0.02418631160009801,0.17485192369648422,0.00836936979756265
428,0.05022712017134583,0.021662943412092364,0.14722151090850105,-0.004265903155542684,0.05106804754892668,-2.6508025864125814e-05,0.31439728372556097,0.024188438682231927,0.01956090170120953,-0.02529799224722943,0.1743926268561282,0.008948856889157565
429,0.05569755774001074,0.03077015505974886,0.14717957412092014,-0.004315720799630884,0.05148008122672126,8.552571206044596e-05,0.3185509906369894,0.02607415895109884,0.01342233697199141,-0.02894073650080746,0.1744756407785599,0.004816058665833938
430,0.05583421572845616,0.03011898227197411,0.14717808607892222,-0.004360245612074729,0.054813879274130624,-0.00020057291406190515,0.31924950357994347,0.021504188694820743,0.00887288348282069,-0.02986900417103023,0.174476452321136,0.004218623344629569
431,0.06465786272913374,0.030292634581565805,0.1472209047601421,-0.004547398849074241,0.05102440634650925,0.004259015732016063,0.31437608938745026,0.02130123747983899,0.0041120790310390344,-0.029786817215496135,0.17448770438911917,0.004243182913652387
432,0.0695206772689455,0.03062327599346501,0.14708995528048815,-0.00902059911369787,0.04778298542444214,0.009086622594988653,0.30496297176348097,0.02122052501726234,-0.0007973178144749789,-0.03014764943140202,0.17410053158600264,0.004262166575949519
433,0.0745778820172757,0.028079841484503622,0.14729669389851507,-0.0085420983416841,0.039179358852925714,0.012866850703646801,0.3027440047989124,0.021530933939258663,-0.004282420838675173,-0.03444016394535653,0.16873264533599608,0.004253130387027945
434,0.07824560868880681,0.023091240806513383,0.14277903705721126,-0.008663191172288531,0.03843481558947764,0.014071875206199813,0.29690697875162725,0.01971951738896948,-0.006280530622557506,-0.0339215849269978,0.16591394677597107,0.004255416094496778
435,0.07792760727159566,0.017676828427986357,0.14175987401009557,-0.00877177725346477,0.03530808855210157,0.017206568111764044,0.2874723793205234,0.01661634788059322,-0.01969829678160777,-0.03406696356310881,0.1641770973767725,0.004257471671937458
436,0.07750253012128056,0.01766375194814316,0.1318614646399655,-0.00819787361892206,0.026292683826373862,0.01889987872896351,0.27366813552113006,0.017027260814716328,-0.028729252844641662,-0.034067776378570454,0.15927408958742473,0.00424661430732907
437,0.08074731706498853,0.008510358212723133,0.13045483058117532,-0.01219635185598649,0.016799445682097073,0.024747575551444367,0.2640903609457889,0.01730684799084663,-0.032820125292770806,-0.0339232509187254,0.1516789480492561,0.004283059772936655
438,0.08252147422262894,0.008294198917284942,0.1250683071772712,-0.013070634486548193,0.012583857991685623,0.025268080692443226,0.26016422862878974,0.01360264739583578,-0.03760324183626758,-0.034416217100726114,0.1409898421458838,0.004195353225276493
439,0.08213179185805794,0.004090067595754839,0.11932645734517532,-0.012990670344133435,0.012863046643022088,0.02954036407348546,0.25082241905734487,0.00856082621034982,-0.04247422230671153,-0.03006052293212104,0.14060910316038056,0.00420175621634176
440,0.08234230114417454,0.002885257424463317,0.10286063255528181,-0.012981536168140097,0.012582065375887054,0.029824040893006606,0.23737678856723715,0.008305559246781204,-0.04252670204805326,-0.0297990203415751,0.12662283633841787,-0.0002874016982448401
441,0.0777819560883689,-0.0002451095982660855,0.09547050659246398,-0.012987999835388701,0.013525534744222955,0.03468440828677871,0.2317580202436876,0.0038204711350258084,-0.04243594364204107,-0.029885279946640943,0.1182516285576872,0.00010708764890883865
442,0.07753337032752158,-0.0017865939862690458,0.09087049058296615,-0.012992946409821538,0.007825200352947743,0.039529811167548785,0.21552244805275622,0.0046906505247408655,-0.04352245068645737,-0.028866824603737615,0.11299297772511144,-6.560383541558266e-06
443,0.07186022527927319,-0.010683853885353995,0.09049097986551051,-0.012956795133134358,0.0008563380613661464,0.04285326596292769,0.20662072736334225,0.0023453857621034664,-0.048748808640396664,-0.025094920218558348,0.10046627453221221,-0.0001135104343389898
444,0.06933394288857818,-0.016998269573611547,0.08638067676573598,-0.013109578759205685,-0.003433714931434046,0.04278678476243505,0.1965103347180589,5.474118549362553e-05,-0.053289331714139486,-0.025540227442115985,0.09095358311566132,0.000489706662026022
445,0.06696294057486023,-0.017337413907809886,0.08509047077040234,-0.012561505213582822,-0.008395630046681042,0.040344185144731634,0.18588094382273554,-0.0028536387864945847,-0.058409690195545406,-0.025953719942383185,0.08413078896430684,-0.0033622643878500214
446,0.06495312131088504,-0.01731832352151897,0.08223381105480504,-0.01678023401552009,-0.008479373813565335,0.035232212929625854,0.16809018117815522,-0.0044425546236080094,-0.06001094921220866,-0.02242986529013935,0.07414312304210602,-0.0040788134680515955
447,0.06192896194421186,-0.017355793930186172,0.07953447753325467,-0.017364362363785787,-0.008529498098971973,0.030561580723503654,0.16173649007368698,-0.004293278348149447,-0.05589031681075769,-0.02102556578769113,0.0647986501647449,-0.008410137031928083
448,0.05693301578288354,-0.017039704052892707,0.07799972723278764,-0.017599860751494383,-0.008504100204035206,0.02581711087931889,0.15664909756031906,-0.004281144915419218,-0.05105170820258509,-0.02144702374600822,0.05526024466910778,-0.008450083534960257
449,0.05200966880556122,-0.01902560806810046,0.07439047242348203,-0.022003644159869534,-0.008512849323717899,0.02108598533185745,0.14169805789104176,-0.008781167668719586,-0.050718641892877746,-0.016896482999563305,0.05047711904147676,-0.008575217084767543
450,0.051857526703704325,-0.02197760551817194,0.06944454774471828,-0.02160562335519376,-0.008508392777375359,0.016186109955080668,0.1295785153825141,-0.008402185738937957,-0.04632059053526405,-0.017246245123276258,0.046649840770462435,-0.00828375357121824
451,0.046027834679186495,-0.021910035217432445,0.06483460675249675,-0.021277618939034928,-0.00851779239510228,0.012692598836238508,0.12742795702563703,-0.008536903544793792,-0.047266684844645517,-0.01596230898056975,0.04568510253232521,-0.009952175677076219
452,0.03715583664860219,-0.01863563380641974,0.06443813199252015,-0.02410615373519782,-0.00848686451017759,0.01122359161162903,0.1117205422501317,-0.008533928267068424,-0.044323270718393294,-0.01231597420988245,0.040721749457872054,-0.015585106856266222
453,0.033339375039652064,-0.013446122236013968,0.0592114940722613,-0.026279571268640695,-0.00857167191772133,0.0083742745959203,0.0950649520682794,-0.008381562644989158,-0.027714463074286294,-0.012878105329331797,0.0336829072893659,-0.01723846990039767
454,0.02569127265726494,-0.00881979278083079,0.05396823817564637,-0.025916798648957805,-0.00846726509086892,0.006360817913096473,0.09021576215483507,-0.008980563460680697,-0.017168064828281208,-0.0127412522175965,0.023400510680508798,-0.01698548389913127
455,0.018620421823015536,0.0003087380685783913,0.05229383177147555,-0.025993529612474836,-0.013196468355120446,0.0007525369235755536,0.08551168513799202,-0.004774891402700927,-0.017103904095743045,-0.012770664126656972,0.017569946697828277,-0.017024991404650653
456,0.01392445734273335,0.0005661088480078155,0.04688923714211785,-0.026000703618113335,-0.018005109861554017,-0.0001221417501443224,0.07609176243720456,-0.004352587837515258,-0.016870312746763788,-0.012765204364533203,0.013189596508868393,-0.017021741133861658
457,0.012573154685580613,0.004841564224027464,0.0358454908842395,-0.025454664738178825,-0.021805100781641946,3.815627969191377e-05,0.05782985459413177,0.00015444797902587062,-0.016411860890958196,-0.012766081955970258,0.0039032204389065654,-0.01701824262622772
458,0.01328995055040593,0.0042110708464502935,0.03116819564893579,-0.021228911868354874,-0.020363466648061785,0.00023503262425104952,0.04784012701268579,-0.0002467830086963221,0.001766665377405441,-0.012766550061158838,-0.0007821306845959234,-0.017040487703947425
459,-0.005236781436470918,0.004272350223177012,0.017166903034808927,-0.021673354780720862,-0.026225452159706467,0.0043828603906525205,0.03542011167070414,0.0011237546676588824,0.005307429019801544,-0.012759729253746454,-0.004456293055655021,-0.016919447116424048
460,-0.009829573502822833,0.004659775511068716,0.017173042279756245,-0.022052785528037577,-0.029825442186215186,0.0056405820332553775,0.03419114801437626,0.0046702799459951,0.008978841242435417,-0.012804945034392825,-0.005325841280155916,-0.017483437285087545
461,-0.019390999451661194,0.0011932528730084404,0.011679754076803679,-0.018847770137204494,-0.03353179258499001,0.0068437812879807,0.03197568764641644,0.004293757884496393,0.008388610155522863,-0.01256862368720616,-0.011621104278329953,-0.01414232409426397
462,-0.021968067942874547,-0.0040818949702586815,0.007186543749336319,-0.01707736042209262,-0.030239057256751772,0.00641604930000602,0.023780960578464218,0.0036985007680099442,0.008566296651617216,-0.013635161443145786,-0.010173398779081338,-0.012949108539166587
463,-0.021111724802854014,-0.004324095952055087,0.0017288486124180462,-0.01734817518896829,-0.02980511554472095,0.006136774875321917,0.013398997345056602,0.00800339646220066,0.008401470098471423,-0.007162305147509327,-0.008350456253653266,-0.00899250616595217
464,-0.024653409597446132,-0.004333507148376782,0.00018462006186086206,-0.017315009787427126,-0.029255639055320623,0.00395116058333648,0.012783773963168463,0.004808619394622879,0.008777104940157113,-0.003691705763271242,-0.008266352029331243,-0.008495003945789855
465,-0.025753533700690494,-0.004398186040232993,-0.0032409996137590536,-0.017314830589780443,-0.026009401825254748,0.004290113488633578,0.008035694620626617,0.004236292474427085,0.004310622409303791,-0.004604286779472499,-0.01271816353181058,-0.008471096730095122
466,-0.029883907921722495,-0.00391232737936156,-0.004471773200185495,-0.017316562547390862,-0.03033859928207671,0.004258603907496329,0.0031511613791773926,0.004152758548429153,0.004544322595351603,-4.968612348804288e-05,-0.012703089589762493,-0.008715812161495001
467,-0.030252862770977162,-0.0067440371009375435,-0.004322574068604746,-0.017315853860187778,-0.029755505268666334,0.004351525007060699,-6.3874681924818e-05,0.005031342339834545,0.009630059920289888,2.7640426384906813e-05,-0.012807826881116084,-0.007187203042600238
468,-0.0348432759811878,-0.00645822131213843,-0.0043417269112898576,-0.017316021939473233,-0.0293337823098693,0.0033375821179541885,-0.0017804060693396703,0.008960430025695834,0.013127677841758969,-0.0007564128430797835,-0.01267680928646776,-0.0038100150928240856
469,-0.03453147204461529,-0.003968572881264419,-0.004163245804691027,-0.01731617784317428,-0.03299049587530664,0.0007930965528652092,-0.0047729946363227445,0.0083912570207882,0.01257088553297487,-0.004418120141352728,-0.013158055836007827,-0.00435762856594594
