,I,aVR,V1,V4,II,aVL,V2,V5,III,aVF,V3,V6
0,-0.06962025316455696,-0.056962025316455694,0.02531645569620253,0.1751054852320675,0.08280254777070063,-0.11252653927813164,-0.012738853503184714,0.040339702760084924,0.16523605150214593,0.0944206008583691,0.0815450643776824,0.03648068669527897
1,-0.06744817078321821,-0.05478979737683187,0.025305294476224174,0.1765812028898308,0.08445232533240388,-0.10957479527222619,-0.012738771300626563,0.04251991131779725,0.16708743424169303,0.09385582229443522,0.08154579268023629,0.03484406531299982
2,-0.06755325017457804,-0.05489434861796963,0.02537147506678765,0.17355473732795898,0.08024924875530712,-0.10701942465343166,-0.012739260133240922,0.04245087903308219,0.16163987857883022,0.08978544312706557,0.08154145778600705,0.03892661565575543
3,-0.06740394562473691,-0.054749893853789706,0.025015402697471135,0.17753556596983242,0.08108537756533697,-0.10933469934864737,-0.012736640059792768,0.04240003779572741,0.15903293329059398,0.09015584359946659,0.08156466018223937,0.03895469274924779
4,-0.0679787744973379,-0.05530002506975921,0.027186586456914633,0.17818338794876942,0.07876437306568322,-0.10622414165960521,-0.012749178482868904,0.04279010513872366,0.1551263989926497,0.09046702463960071,0.08145403278309278,0.03606870207203892
5,-0.06468674328825513,-0.05210057940387168,0.030354772698119314,0.17003238952144364,0.07420098758335053,-0.10173221217934081,-0.012697178695547671,0.0401681456430586,0.14512930092185972,0.08759986550708766,0.08190968174900452,0.03679883864488502
6,-0.06379469234990486,-0.05081526340268584,0.026331445880595154,0.16048909583218773,0.06569057231691038,-0.09079210560185016,-0.01288137835142201,0.035035257449824685,0.1317671886552876,0.08282181175218153,0.07851160166065578,0.03877036812990456
7,-0.05622454336421917,-0.04694102186820895,0.02517855259781689,0.16070027315419938,0.05999229576006803,-0.085777112794692,-0.012375936740970199,0.030435844036144074,0.12117635655164424,0.0741024882213719,0.07347586000067781,0.03895366944093116
8,-0.050733452292499474,-0.046404375604110745,0.025326422928844815,0.15618599304359626,0.05520794041421871,-0.0765021801735708,-0.016983423275852057,0.0255262897375767,0.11155620172674063,0.06431407495027922,0.06867306460931645,0.03433424025308224
9,-0.045806655053578546,-0.04660745679486984,0.025318826614516603,0.15566425354566218,0.05448416114058823,-0.07655488231301073,-0.012432285121875577,0.02536272257682157,0.1062455643833959,0.058974375758035914,0.06389194496773952,0.038564917782018086
10,-0.0368046065617481,-0.044268849328355744,0.025319966163916713,0.14123562673539375,0.04611682430706081,-0.06850943146324641,-0.01287439948436846,0.019476223423029276,0.0981773453983179,0.05087103422245535,0.05864785501449655,0.033777879680140205
11,-0.032301289460236624,-0.03212337880452447,0.02528409203073476,0.13365855628024884,0.04536596193770765,-0.052524350907257635,-0.01269743059258043,0.010636207345146632,0.09733895994684999,0.05062186080239617,0.056487075000715856,0.03449394107950056
12,-0.02907596982342925,-0.03589154322743652,0.02548320674896015,0.12830297541443253,0.042638691503225024,-0.04848506223669526,-0.012748903208606032,0.008244928541380155,0.09359185526286601,0.04389633834776159,0.04935978243672648,0.03432630635167959
13,-0.029952663972721793,-0.0386351464752122,0.023920816247581238,0.113491316751157,0.037888137384741935,-0.0491083861074478,-0.012738901952754036,0.007744079418338947,0.07711660179017074,0.045034504282571414,0.04228259292699036,0.034210857018449954
14,-0.026966073977305584,-0.03518878436837554,0.014875096680137392,0.09655808241089829,0.02768790358788697,-0.050847474544280076,-0.012730900554489968,-0.008203127855724551,0.05760017388905184,0.02553242401348476,0.039875619645665356,0.03478095034734092
15,-0.02161564895617986,-0.030375151749280203,0.012728010903166873,0.08576508624748677,0.017918782332772058,-0.05465108300273414,-0.012761205823189363,-0.01660309909039027,0.052138173121307745,0.021302339024581826,0.035323377315535316,0.03038338287258616
16,-0.02104695555201714,-0.0254665317789217,0.008742131730974956,0.08077290213972156,0.012806461319145823,-0.0552293411021066,-0.01271977524851123,-0.021104681835652585,0.04282989443057197,0.012523048764756373,0.021478137728096394,0.030046085649309336
17,-0.021082474494172016,-0.025322521288692387,0.008410695319328228,0.07162411535339584,0.008535897065672393,-0.055301552165217975,-0.012434250907633393,-0.02135412441601846,0.038587026166687265,-0.0007232471770129926,0.011817729281104855,0.02546210610687063
18,-0.02125097193785601,-0.025599447469844345,0.003916499412725863,0.06725259359428294,0.014137640422571273,-0.054376555788125704,-0.008158529585998737,-0.026348126168801285,0.03787417522237421,0.00020642875060115313,0.002905739303656845,0.025887966327523146
19,-0.01997916838900751,-0.02311594919703349,0.004354699871963486,0.06037041214902456,0.016922967859394945,-0.05071095610308415,-0.008299698088900083,-0.03126848373641713,0.043812052024757256,0.00029246962962839224,-0.0017392908519309254,0.025616548319023266
20,-0.016757944437075786,-0.015779161979663097,0.004094132055794196,0.04815315407069009,0.019133184882225374,-0.049640234417948674,-0.010413211253215503,-0.034204264079135516,0.05012324500484684,-0.0022881526481412385,-0.004775424089365322,0.02622128014931523
21,-0.014893069819565377,-0.01860455990288799,0.004646401416022127,0.04466831760576118,0.0208141694111049,-0.043277924118327,-0.013116470505605474,-0.034451114822800895,0.049454220035823865,-0.004580634758021859,-0.0037491756651343456,0.022860450626589066
22,-0.011822818261275878,-0.026815230047226905,0.0015779581803688518,0.039227015336752144,0.027218975810471217,-0.04546886337323001,-0.01266682146656662,-0.03055011109972431,0.05182242753776573,-0.00434506891543841,-0.0076644241776427525,0.021647901640105428
23,-0.016190043856943455,-0.032961403462499365,-0.000249495500383885,0.03777832457140529,0.03375065210178877,-0.046788079975334754,-0.012749342558933936,-0.033057510700553204,0.05146229138818499,-0.004083116384209153,-0.008685904556385233,0.017607587110342923
24,-0.016714331687838088,-0.03766838297807036,3.593522959777635e-05,0.03802580576939309,0.03397639445690858,-0.04680690775604621,-0.012738237759303007,-0.03410135329063386,0.05149845252894042,-0.008666730791035328,-0.00858368517859891,0.017165964762103667
25,-0.021103844706329176,-0.037915708500812315,-1.9313887450760254e-06,0.03794607740954973,0.03395532147281144,-0.04231730439757789,-0.012738584057087938,-0.03410239367791182,0.051593297541874125,-0.008677464623592979,-0.008681093439126843,0.01725149275556217
26,-0.02102762844250377,-0.033012993393653954,1.985706290539967e-07,0.037711464958670934,0.03416707016027798,-0.04201195344558143,-0.012738994453863886,-0.038532820143281306,0.050754054521066246,-0.007243392315304502,-0.007689274590621198,0.01626191069588244
27,-0.021085331751421754,-0.02920000955929717,-1.1272758151427795e-05,0.033568623427473444,0.03261432626352425,-0.03653319520116032,-0.012738807942094955,-0.038108019139778945,0.04506633777925323,-0.005540635081722779,-0.003729967247460887,0.012410420548983002
28,-0.021327534660028586,-0.029745569125140058,7.204593656497452e-05,0.03264964983935712,0.029159132722987306,-0.03325350434668832,-0.012738865379401996,-0.03822207770065736,0.042932660427908276,-0.00910887703330175,-0.004868581249468558,0.012992099876357062
29,-0.019498464777097036,-0.028971416747332886,-0.00035861633731081797,0.02908371289704785,0.030343747225799488,-0.03654254512375371,-0.012738851606949085,-0.03832662891079914,0.0405699393351405,-0.008454034128729932,-0.001382870386223289,0.012850387318326143
30,-0.013867616898186635,-0.03273474906659393,0.002263439378959714,0.029529310356421586,0.026266636216346086,-0.0384871162903099,-0.012738850896810261,-0.03776279662612083,0.03494680343653807,-0.008676504684089533,-0.00018983140051418487,0.01288004424288951
31,-0.012585353250226548,-0.03067502908114482,0.004966047574835946,0.02996013073629343,0.025967108638623032,-0.03815333441594166,-0.012738862515697542,-0.04164590301251657,0.03427292844374965,-0.00844278781511355,0.003842147661409914,0.012874966684111306
32,-0.012379185345132753,-0.029415310615020104,0.0006782070664306497,0.026051443547820453,0.017153675194165396,-0.03825343008284889,-0.012738840313857688,-0.042550767924427225,0.03433206817762652,-0.013126461945629714,0.004294537034583013,0.01287553974107024
33,-0.01676311023076219,-0.029530975078888373,-6.377013288607269e-05,0.025240334326125623,0.017105325460494057,-0.03841409339815173,-0.012738777610789908,-0.042465876569626373,0.03432967552582595,-0.017573709421776038,0.0043419885010198955,0.012875562844218197
34,-0.016740356382554528,-0.02918721907429698,7.948513983014988e-07,0.025306916333255745,0.01692354203455656,-0.04293421576691187,-0.012739733705773247,-0.0424565425293075,0.03440134970183323,-0.015914393409908325,0.004040637775468507,0.012875525844899344
35,-0.017795008786587234,-0.024974467511508953,-0.00011831331402978585,0.025414740716281227,0.017027493434126774,-0.04149532916529587,-0.012733274345099539,-0.0424707831241162,0.0339678786572784,-0.012467330151173163,0.005884711710804975,0.012875537349823954
36,-0.020288099310660963,-0.02511766963813628,0.000959780341138012,0.02457500371540147,0.01686301625285885,-0.035591974323538514,-0.012766893374896929,-0.042430588682638624,0.03661546532919067,-0.012866696017040118,0.008594741160080433,0.012875547061079597
37,-0.01632219083490289,-0.027260799590186333,0.004774877799197819,0.019107597852646496,0.01747476802683403,-0.03611197579819321,-0.01261822295739046,-0.04260846903262121,0.03892355190759745,-0.013267293939229185,0.011213905030291823,0.012875490772748775
38,-0.016976205430075244,-0.029907631469276323,0.0036494219154810555,0.016559944487211705,0.013693379615369445,-0.038561867993768276,-0.013185661280820375,-0.04188223543600389,0.038657620293013256,-0.009388367099796275,0.013236375906369603,0.012875691731992989
39,-0.016970685757774717,-0.029464292406548298,0.007078601886654143,0.01697763497238698,0.012917704377214387,-0.03816841378181756,-0.009156649539067366,-0.04619203823348296,0.03845232267838662,-0.008326389376903722,0.012572380885912634,0.012875154299902773
40,-0.016520228789455013,-0.02954798831592165,0.008243319417174409,0.016753540292532478,0.008604256542273658,-0.03821014557689517,-0.008438314203305618,-0.04300379992584671,0.04304839194829016,-0.01283213486213365,0.01715586337904984,0.012875592241356433
41,-0.020868478087434927,-0.02953311026044615,0.012189654480825162,0.017170920602634504,0.008566244594804127,-0.03817612363939488,-0.008482889574922015,-0.042453685992517164,0.04799396443072684,-0.008137686425587433,0.01699508232076176,0.012882937431417454
42,-0.021069746003198865,-0.02951858444566247,0.012656470758380745,0.01272275342365058,0.008309160720644249,-0.038799676260618,-0.008499167710067763,-0.04246550728164881,0.05159500919880214,-0.008740187257676283,0.01810372723242876,0.012815000905237675
43,-0.021089592722697004,-0.0297156308387729,0.012302593352135238,0.01271604589974551,0.009596466595675809,-0.04308849501235573,-0.008490318364144718,-0.04226164366834117,0.05306293206108871,-0.008514567359411163,0.021910766189496465,0.013217871225450983
44,-0.021296973353940613,-0.028286285946733814,0.008805183164617996,0.012627356290281049,0.01466821604068552,-0.041074196831514004,-0.008493053873708176,-0.04386244063612898,0.0562623204552522,-0.008715243268613879,0.021355749301200863,0.010751928944248822
45,-0.01973056246569858,-0.024983510708401595,0.013230069736198561,0.01268864133523307,0.019936218875010032,-0.03504220617042317,-0.008493037847820817,-0.04714779947800882,0.055587749779480555,-0.008133063485937276,0.021441736814528253,0.008234177412631471
46,-0.01466921976523899,-0.02493258881419967,0.012507363156354425,0.012549838500380897,0.02097603492662167,-0.03668190800228944,-0.008490274018549567,-0.04660911463412941,0.05617602431751385,-0.012247307715536872,0.021597538839395986,0.008645973250262043
47,-0.009600203065830346,-0.028447047187028347,0.012690892684654304,0.013107846127163637,0.024972542939571265,-0.03853496769824874,-0.008499737988912919,-0.04673595072937611,0.051834587317297745,-0.012919324487635409,0.021107328942459702,0.008577121955782302
48,-0.008266513153459585,-0.029254487884814717,0.012659765089071443,0.009631683580246105,0.025399494047896067,-0.0380088150936497,-0.008478939143492579,-0.04668356328699445,0.05160336927727579,-0.012892093204559781,0.025750851578688422,0.008583509453479922
49,-0.008463966608747531,-0.03368725377672255,0.012633605481535201,0.008267596645867022,0.029878612435083315,-0.04257251589615664,-0.008460510400790452,-0.04673430181195969,0.05648368253681714,-0.012820469318523714,0.021126720995080558,0.008556625373673856
50,-0.008439874696963154,-0.029393158791373518,0.012705257704405499,0.00845493165747244,0.03015400185909685,-0.0422443013544852,-0.009049530411756096,-0.046970687736180135,0.061568264314686726,-0.013179889434662478,0.02159925121568446,0.008808751868391022
51,-0.008340683902242888,-0.029648717028993746,0.012782277721191814,0.008440879703183727,0.03573640851137171,-0.04350756564675354,-0.013174147514052801,-0.05131652554556385,0.06439038056425996,-0.010974564068026656,0.02141889551029773,0.007090965128353116
52,-0.009264098615313559,-0.029490954586446738,0.017197368875946813,0.00843717063849382,0.038533085931426896,-0.04754721967253584,-0.012619182036524805,-0.050915849100632696,0.06653439605968516,-0.00820105534099318,0.021461521361844663,0.0038604201934537524
53,-0.01346617963045166,-0.029572982572248906,0.016762720406476386,0.008439410859207862,0.03814677754042035,-0.0442150637967595,-0.012757501442012337,-0.05058744804952062,0.06933042746983152,-0.008657022173466528,0.02149033157021082,0.004376136181174764
54,-0.010404607053859306,-0.029417835909712576,0.01691024023487522,0.0084386505126776,0.03822144187339085,-0.04251241000783312,-0.012773530818516336,-0.05343870678384328,0.06548595789488659,-0.008573310434929916,0.021346329630715546,0.004307473579846907
55,-0.008525689376622297,-0.029982841731237088,0.016869663577474627,0.008438859721779938,0.038240625120336935,-0.03940225000509865,-0.012610629143931731,-0.05545313445060357,0.06025096581061658,-0.00858390118487666,0.021739875996890673,0.004213420616924456
56,-0.005431654496441548,-0.02615874191322233,0.016879299621148227,0.008438809761400072,0.038180861299510066,-0.034241762464154536,-0.013008319818313106,-0.05525161834374908,0.06002659625078453,-0.00858014299796197,0.01718248730446159,0.004308088003596993
57,-0.0011739686432950605,-0.025179705048711237,0.01687748002121301,0.008438820161511706,0.03797721331929221,-0.0340645685414449,-0.008494134651437758,-0.05505321433551185,0.05477275239874087,-0.008622971110925776,0.01720993951576495,-0.00015214624464347153
58,0.012252538387930117,-0.02529036127820939,0.016877306688613536,0.00843881832376321,0.033794634338010096,-0.03847313347434725,-0.013258918436192268,-0.05959059213199908,0.033865061830071305,-0.008342575829789919,0.017363259435711906,-0.0008492779428383926
59,0.021808611088398277,-0.020385922781692798,0.01687775542953554,0.008438818580534628,0.03276099256144928,-0.03835916528087814,-0.01157154529568828,-0.059354140110120156,-0.0014514409147390196,-0.010193044130440636,0.01568139154854737,-0.0044464925089846155
60,0.030741823213651397,-0.01663513403751042,0.016884130869538445,0.008438819221865792,0.029661748404988836,-0.036633920633287534,-0.008051334602850953,-0.059485596696690665,-0.01098510326905783,-0.01560280250807045,0.01246986494631068,-0.006282586953450676
61,0.03495171060526242,-0.016627694586082886,0.01682303109710899,0.008438813116810029,0.027264153808610678,-0.033547781287467195,-0.008710072151541367,-0.05940998035356361,-0.01858333359658783,-0.01981719274625912,0.0128460884183455,-0.008961711931016254
62,0.040245709848196115,-0.01894249547725545,0.017191991825302334,0.008438849910287833,0.025527399440250658,-0.034056989452733624,-0.008017382119171811,-0.059577937435693604,-0.025180734614739016,-0.028766711831698724,0.013279748468885863,-0.008515524446603395
63,0.0422718535283182,-0.021450250199894202,0.014949998948841824,0.008438668711170685,0.02216852099684148,-0.03396198486595146,-0.011897352735681242,-0.05896291688876939,-0.029465793898052643,-0.03429531667487508,0.00901729655092964,-0.008592456147572375
64,0.044307539889130984,-0.021027938589638286,0.012251166684144476,0.008439442691963566,0.01722824541295643,-0.03395612391255549,-0.012846499544574428,-0.06304795957430669,-0.038876858752003515,-0.03438970779667592,0.008578943270187904,-0.008583586673696285
65,0.05356929906195226,-0.021117108855219165,0.012856705567416624,0.00843656382660537,0.012513411169456064,-0.03396049964325505,-0.012752206185518722,-0.06356231696564138,-0.04442870607835261,-0.033490873495596846,0.008564780054087472,-0.00858277527574659
66,0.055176451042281804,-0.021089009702324718,0.012280371357791073,0.00844539756893173,0.006939190251976014,-0.034387341047981086,-0.012282321272367898,-0.06802802454800495,-0.051116773790766984,-0.029900781242794116,0.008593135610350527,-0.00858823812183814
67,0.05067846095611672,-0.02093178393830703,0.016738462788692454,0.008428333228744355,-0.0011060121876463954,-0.03889209801873833,-0.008074695460780087,-0.0678487307285987,-0.046903804693417706,-0.028145015872214976,0.008572877733250214,-0.008558740562168916
68,0.04842831733351965,-0.022670086358839173,0.01700954388266353,0.008393754042227818,0.002117091452867624,-0.03645334348887984,-0.008614565286979537,-0.06799166949878989,-0.04499454243173897,-0.025342084612381455,0.008623785609368596,-0.008700527859660013
69,0.03228469775633757,-0.030409813477196984,0.021459326802248734,0.009036806757358507,0.0042195560252004305,-0.03400817300124775,-0.008462526530861497,-0.06783464788704395,-0.041235945654166904,-0.025885895689310594,0.008424139790268093,-0.008112085735641697
70,0.03247652382349082,-0.029437714812472662,0.020971870882686323,0.01309462592474797,0.004156359796470173,-0.03128024886598247,-0.008498393657040344,-0.06837817485056019,-0.02466130410672253,-0.025577872237059318,0.009126090018425757,-0.01194852089411148
71,0.030183200205671824,-0.02901460164104952,0.021131838908546183,0.012535085750887166,-0.024991206091585005,-0.029486154260546748,-0.008493532610280128,-0.06511970702278214,-0.01696639131896023,-0.02584958227940609,0.004425721193826301,-0.012913931339105249
72,0.038327970523690684,-0.03307243400004877,0.021088702923382985,0.012695905457254814,-0.034051433102939566,-0.029752185240293282,-0.008487642856300484,-0.06347864046419796,-0.01157818747712148,-0.016715605299876993,0.008563338501684864,-0.012893437485063528
73,0.016351403159313944,-0.0302637729995277,0.02109864330909402,0.012619417053373855,-0.048827727061669525,-0.029723993372928227,-0.008492414233238422,-0.06372047475487198,0.038269778170419516,-0.017111364786893162,0.00884955425444709,-0.008317907040452746
74,0.002435578433280877,-0.029508622619979708,0.02109727381062508,0.012765766639613927,-0.10758578228373912,-0.0297511888684043,-0.00859756637153858,-0.06369457588368975,0.07726518354260141,-0.01888630382053246,0.0135468750262305,-0.008717698289819064
75,-0.78931103206979,-0.02966902849618736,0.02109584123086724,0.012410988751840765,-0.1452947402207218,-0.02949528967682589,-0.007588144753270983,-0.06369079203979586,0.22667550190156746,-0.01982076225803929,0.011259925222271074,-0.008426285842671024
76,-1.0551847565673846,-0.034751069565526406,0.021096761249001526,0.016892170389862543,-0.1505685850021213,-0.031227844140091193,-0.003789296558227383,-0.06371110999665631,0.8720174750090711,-0.01675234150439997,0.008182825110681935,-0.009172566266899438
77,-1.0489107504634738,-0.03837091835920418,0.021124460870047084,0.016836769410367942,-0.15275272477797175,-0.0342891823911396,-0.004358617085446926,-0.06360333773948659,1.3060906557173522,-0.017117288693275036,0.008670700614286026,-0.005227278913582437
78,-1.0506680966856046,-0.03750563125646472,0.020882272524454716,0.016671967753436323,-0.15597214895220565,-0.034323326450784175,-0.00423242758833252,-0.06411717455446996,1.3717325918721612,-0.01748632554626349,0.00856795788539343,-0.007915009464191512
79,-1.0648438907101578,-0.040356993124111916,0.022498054953355294,0.018381393654363823,-0.1501557195862001,-0.030737549358884855,-0.004212687833173268,-0.061002448129597736,1.384870007650026,-0.01288272959537511,0.008585721666996763,-0.00460630797304348
80,-1.0377380235478006,-0.04249474458125247,0.025860436813801183,0.02111980983443255,-0.10405255525140164,-0.029507108385351276,-0.004342540768335006,-0.05920707387627803,1.4255302173825062,-0.012059579424162312,0.008583662874839108,-0.008549472699524115
81,-1.4484036082422702,-0.042129676511498494,0.024765770426199724,0.023593695606596063,-0.08793283104644578,-0.02976997652980139,-0.004203523701637445,-0.05947938937388571,1.8518726573586568,-0.004391495110969479,0.008583603376029184,-0.008212539211317767
82,-1.614832740922874,-0.04223005667321141,0.02849437831783174,0.025601714247946383,-0.051768380959821975,-0.025614069130175766,-0.008385116468173436,-0.059447831879187785,2.0310197079714567,-0.009032988936649718,0.008583728511345387,-0.0030280852923758586
83,-1.5315134983137826,-0.04225158774583398,0.029676313331588433,0.025251939938170327,-0.04336084128492609,-0.030018035248904385,-0.0037436313440610213,-0.05946756640522802,1.9744194422031336,-0.010201165489555516,0.008583679653883692,0.00032614626101328003
84,-1.3471895047823776,-0.047514753005428005,0.0295264651784166,0.02535002372884366,-0.01920918503462899,-0.030977554397505203,-0.004377431225925228,-0.05926228969815406,1.8249746320152644,-0.01570077810241751,0.008583693902104957,2.5964786108619928e-05
85,-1.242413507736241,-0.04884148653637794,0.02953266241930176,0.025534129846364915,0.03986950532568649,-0.03447533206820969,-0.004320334578796258,-0.06071531828157542,1.6247322715094912,-0.020288464763983913,0.008583690130273835,-0.0004434971025934068
86,-1.0471023318419845,-0.041458318413983834,0.029537723348328746,0.029878545525004824,0.07351158989518666,-0.03374271253940813,-0.0037890452335924236,-0.06454580347617923,1.481761480540801,-0.02544629536439752,0.008583691905234276,0.0033239178633438127
87,-0.8254554521019646,-0.04067086583026654,0.02953486886222766,0.02949178748489991,0.12419916521968091,-0.034417415721916964,-0.007502365067458768,-0.061024453193543896,1.2346109512896428,-0.02574873873724362,0.008583688951068773,0.004407488851927766
88,-0.6759503979641394,-0.03479895070753568,0.02953802647154595,0.029195125707953705,0.12058902258477022,-0.030218302001242914,-0.008540401661452302,-0.059231712029543665,0.897554446362841,-0.02568128002071405,0.008583691613551735,0.004290124226542946
89,-0.5656792016019581,-0.03360791222159627,0.029527145594664492,0.03183547371895203,0.10995576406203153,-0.02970430339402628,-0.00855515370314895,-0.05939605622090824,0.8077914694950126,-0.02648900755094432,0.008583727407791397,0.00428876810769976
90,-0.44043957841980663,-0.033768775940844785,0.029568793969022733,0.03418424257517187,0.09698960362557803,-0.029709910507542552,-0.004023510461214484,-0.059562498044885046,0.6738550180459022,-0.03197305336202272,0.008583385934830955,0.004278415003076931
91,-0.3928498769874957,-0.03375502136301265,0.029431462708676505,0.033318817087374636,0.08684168670644175,-0.029717108160532458,-0.004349655590146662,-0.05502536808081845,0.49124755008436705,-0.03511375552969994,0.008585432187763463,0.004379971636445448
92,-0.28368058460871043,-0.033857574240407765,0.02976046605324107,0.03767925480356291,0.06396070868202806,-0.029806497761119054,-0.004227979012577948,-0.055300454028954116,0.36469971662652895,-0.03130654952762422,0.0085754969362166,0.0038742716693869537
93,-0.25608149725460777,-0.03287145757595361,0.025268721239472765,0.037964994290914086,0.06068903200245037,-0.029314407969193105,-0.00418265424276248,-0.0551638744109898,0.2706056286487637,-0.030243965181017213,0.008616864718669001,0.006984714849338818
94,-0.19624267605969578,-0.02909936611215358,0.02527558075337503,0.03787926481968563,0.04414821957054774,-0.03230427570712591,-0.004545307667210155,-0.055237934208713944,0.2676874139093419,-0.026122452837439795,0.008470380009673255,0.008944489426035198
95,-0.14550000351725845,-0.0295673687235588,0.026226569171085755,0.0388911355815061,0.027030760576718254,-0.03420807381507277,-0.0016331810157529725,-0.0550814086065744,0.1974607647102694,-0.025764360111883728,0.00886886554482877,0.008246905651386407
96,-0.1125982457403742,-0.02985242780550675,0.030006020935246406,0.04274295674965935,0.022161227856794252,-0.03400216203098695,0.004161769607439735,-0.05564115171659603,0.13988054753512066,-0.025728513440063928,0.004318551325698137,0.01285623298556679
97,-0.107362612203677,-0.026726173164693078,0.02938906670688356,0.04165600418044112,0.003906807340138832,-0.033891384194143684,0.0001381077414994783,-0.05166193279125119,0.12672316515963766,-0.025756488056941862,0.0043669187812022114,0.013173440535817753
98,-0.1008570642731711,-0.021556852263519517,0.029683355559487097,0.04489491681792173,0.004042077857476576,-0.03859409871925533,6.707846023960018e-05,-0.05084997061525578,0.11226840358065529,-0.025767161248874258,0.004203719303564676,0.01766304003570066
99,-0.11553036104943663,-0.020995077792828998,0.02910863414810363,0.046623027381302584,-0.0005926625898556619,-0.04350012391150174,-8.559758744296778e-05,-0.05080786430164214,0.10608833532353398,-0.025667233001618505,0.004636561109100389,0.016705625096481335
100,-0.1393624839956404,-0.025436566402900984,0.0332588738089416,0.0464609528042637,0.00035102274070143236,-0.04685186330549812,0.00033728486537023844,-0.046372655145266,0.11333143800524634,-0.02607924219252273,0.0022026827004922433,0.019256631578880794
101,-0.1496219132962861,-0.02596438191774517,0.03377940344874676,0.04633433526989607,-0.0009052837985358502,-0.04809309096276834,-0.002007876867244908,-0.046895374378598156,0.15500632055430866,-0.02268996852407109,-0.0003870162334892865,0.02196578108953907
102,-0.166102947278535,-0.029993943441684268,0.033769457951785965,0.05083319605413737,0.005760742177126408,-0.05389735912648588,-0.004130803621369868,-0.04630669389661882,0.18331020027617662,-0.017333255673056325,0.00017786224042499625,0.02085048444293817
103,-0.1748129704272349,-0.029513766347018515,0.033748224154595365,0.05051996686037922,0.011097318548392923,-0.05527496308936229,-0.00742421876544957,-0.049006330136799836,0.19217849260692105,-0.017098933231241748,-0.0002951911544058438,0.02561991857252054
104,-0.2005386897675251,-0.029121937016429098,0.03375716591971037,0.05074484412328904,0.028010331090810355,-0.055530856470396926,-0.008226952903159598,-0.051301578561200746,0.2203486851274471,-0.012514257130138248,0.004263166619192122,0.02148822117742255
105,-0.22520785375745503,-0.032561097467050555,0.03375667015884381,0.05023147163740485,0.0426926235470843,-0.05108934665533157,-0.012700613862390395,-0.05079835733034058,0.2562888689946619,-0.01319215077104167,0.004224473855441071,0.02117817089796329
106,-0.26101085836355326,-0.03399342281549412,0.03374682004682518,0.05305674708902974,0.04707641349503406,-0.05084800336284133,-0.008278452425444649,-0.05118488113968721,0.3198193223233739,-0.011519341937351511,0.004321031408045662,0.016704803021837588
107,-0.2951431270142764,-0.03361959687972028,0.03378726929901914,0.055103984205142564,0.06242762771518284,-0.045639972482931536,-0.008625880264327562,-0.0466522446146011,0.38116740845577324,-0.005888465144556084,0.004283001866483454,0.017399295198442112
108,-0.32837911470912445,-0.03823473222384661,0.03365667076426385,0.0549311008344746,0.09404313298863425,-0.042221557763551576,-0.008394159095674193,-0.04682035245095244,0.4521707500291066,-0.003928366504403261,0.004294083390124427,0.01667638690978783
109,-0.35241631999188455,-0.043007586628791054,0.033948567385102275,0.0546084258756028,0.1209948918480061,-0.04215981171686619,-0.00878997920884993,-0.04644157105334219,0.5195411442146872,-0.004742464102592809,0.004291358604400627,0.020021726469523084
110,-0.3792610509944279,-0.04703754392880845,0.029449173329634305,0.0590545098739225,0.15382176439793646,-0.04487164502431158,-0.006502448369725476,-0.048250121153098686,0.5681652718267357,-0.0002026050114759515,0.00429193132822543,0.021266025346195025
111,-0.3917227648029208,-0.04460623052126932,0.029618500332702746,0.05459155534665609,0.17415081479009026,-0.04703628255436609,-0.0009194999026023764,-0.051495933081920256,0.5943968124980475,0.00010147677693523325,0.004291841143022205,0.0252907997821593
112,-0.40938219439384915,-0.04181812602104486,0.029504159552729156,0.05400352233979507,0.19800167597580737,-0.04655965389455755,0.00012222010342208983,-0.05038844622749738,0.6660164357677165,0.004511077305078869,0.004291842903576222,0.02575194001974051
113,-0.4528470539854595,-0.042262858810151564,0.029551386772330736,0.0500695168227917,0.21290603157824492,-0.046886639556153915,-7.646430436913422e-06,-0.05437473637895167,0.7269760504101689,0.00522163027647105,0.004291719971554442,0.025402915311151585
114,-0.4925306086339452,-0.042210353507870724,0.029502974841942357,0.05106068797072019,0.24968885983407124,-0.04237680741425344,9.019689774753435e-06,-0.055148161946579864,0.7967258853067759,0.00946064412776579,0.004292913777411323,0.02105854377747893
115,-0.508182035560504,-0.04213316429632584,0.029658191477360752,0.048356989582269715,0.27062147727025854,-0.04186166347902398,-0.00014552646803434242,-0.05941431028808347,0.8690429685176976,0.006076894962889859,0.004285717823286301,0.021495607724831684
116,-0.525988551245296,-0.04212258621197213,0.029122736358661794,0.04278804113990709,0.30065979084994066,-0.03813734562369769,0.0010806631482209274,-0.06312676150325756,0.9052780106803789,0.004023118560826007,0.004320771558927848,0.021851913900930275
117,-0.5493191206003241,-0.03779986494062145,0.03331314960367632,0.0423919915489445,0.3513962773252787,-0.023739325253464564,0.005081017939001768,-0.05433276164989866,0.9457528854238247,0.0043040203708247255,0.004174400156370013,0.018751856827065202
118,-0.5574545015892648,-0.037124347007000603,0.033768273528816624,0.0380257955266738,0.40086201063317545,-0.0021230241744721653,0.0017693949191703731,-0.05538196448886597,0.9855226116276629,0.0043444206823552555,0.004694578537463408,0.01691683218386229
119,-0.5643986629698474,-0.03317395727960205,0.033771407580691915,0.03803819097637715,0.40753314639180555,0.005299669866439888,-0.0002795169016551962,-0.055548330985113525,1.028483836866605,-0.0005344913735896632,0.0005095401027009222,0.017218544201290223
120,-0.5774785942773627,-0.0343042635620193,0.03374787698784066,0.037944672971712196,0.43973807383880464,0.015524315805305689,4.5874714298957603e-05,-0.05258529521946905,1.0563121943895504,-0.014951565283785785,-3.23607462337387e-05,0.01715877905188897
121,-0.5737808321658262,-0.030981840222462906,0.0337575960076988,0.03798932195496142,0.4417931207609545,0.021077542491338565,-5.244158876278364e-06,-0.05066972042509373,1.065839823206321,-0.022986374662284963,0.004886577691978078,0.016829016269399814
122,-0.567198941090321,-0.02932352848313071,0.033754663861720276,0.03794561984842208,0.4694847006942023,0.0212016672915862,-2.641655368676158e-06,-0.05107588696363906,1.099698563640606,-0.02757244885170008,0.008889676940188978,0.012250482375030972
123,-0.555956713315289,-0.029540365246836713,0.03375541439094528,0.03808738984873346,0.4875189865633185,0.02147543639765213,3.570909094154362e-05,-0.05087259116592495,1.1093087264984898,-0.032367311939558246,0.008490822429429154,0.014457887991714945
124,-0.5415594992922731,-0.029543099604881135,0.033755246489434364,0.03756457670263184,0.5220180559790029,0.02836961200873178,-0.00024127559485311338,-0.05538763374581138,1.11395668901755,-0.03761482873035964,0.008606684690382857,0.017564438731290957
125,-0.522978559223373,-0.02997048395987694,0.03375527866522266,0.0414547283671017,0.5421360181852155,0.033021186809369954,0.0015585964122119254,-0.0552908426996099,1.112824587183453,-0.03881268782704785,0.008580926545227624,0.017114369409737776
126,-0.49888442486628726,-0.033462609927907914,0.033755273869587085,0.04241080279652827,0.5748350970918643,0.029369425951932208,0.005213708036941606,-0.05393119686342472,1.0967996829985587,-0.03853361596552966,0.008576443129009672,0.017061314923782055
127,-0.47078853841435075,-0.03815277188335986,0.03375527420552881,0.03785359969119477,0.584779625210686,0.027705505150983096,0.0007993989017369939,-0.05050172844289469,1.0865009968320691,-0.043403076762731356,0.008604424171597727,0.017476639962534585
128,-0.43914569398646564,-0.04563910192508949,0.03375527423193438,0.03819799937578339,0.60079919079565,0.018763734187983157,0.0032890846721454073,-0.051059626230313127,1.0591025121867987,-0.05299270602448111,0.008574561100224656,0.01290207113190628
129,-0.4042536576050831,-0.042057153449424026,0.033755274743364025,0.036898664633513406,0.6201411396948132,0.012777132630231619,0.00434323156054266,-0.050932896972737174,1.058463545105605,-0.05470729264228118,0.00822395682308233,0.012582454154770243
130,-0.37766029942751383,-0.04201130113833105,0.03375527167664145,0.0331862411928746,0.6488367242634888,0.017199494568162225,0.004252897890836778,-0.05096513932683366,1.0448727968162952,-0.05141184402658597,0.0038848898482264013,0.008147807771750011
131,-0.3448682367745978,-0.08096306357047128,0.033755285810557825,0.03441482664955827,0.6701918268897372,0.026743318081475266,0.004238872487289491,-0.050945115634942084,1.0391823928017738,-0.048989999133769856,0.004417329632205482,0.008716321711906201
132,-0.31954063687465206,-0.12514774294296252,0.033755229218331066,0.03046995536561709,0.6971551599341124,0.019526691347148933,0.00424904359603823,-0.0509045277343398,1.0316372055342489,-0.048813068288865044,0.0042522716605373385,0.008550135119577168
133,-0.2918873073888334,-0.19461690541836613,0.03375542331956533,0.03268289166570981,0.7496844476604827,-0.0001301252729607261,0.004245505683209608,-0.05159666915920073,1.0260268136197968,-0.06242387872324194,0.0043319102223886375,0.008590582618368328
134,-0.258505041139825,-0.31288980755837825,0.033754914158879094,0.03386683758609896,0.7684054853870378,-0.31346854807915125,0.004246433827923971,-0.05564444708492793,1.032612116229826,-0.07231674347796327,0.0041764531696746494,0.008583954918151308
135,-0.22152102061156012,-0.30046340810019573,0.03375531822159509,0.03375661230402071,0.8261099710015638,-1.4471460604705282,0.004246409828446127,-0.05508774882479685,1.042715606025844,-0.08565147332085923,0.00458365763314971,0.008579759718316154
136,-0.16677003033020638,-0.30684582581419906,0.03376218366417006,0.03408873942298099,0.8657784955578307,-2.1689319619408423,0.004245752740142248,-0.05519875564849726,1.047314162466875,-0.09989993402274068,3.794543018749647e-05,0.008585587809707139
137,-0.0976807634155287,-0.3063531378513953,0.03369884014240134,0.03858454697955703,0.9300063373256217,-2.5421803608528717,0.004247491938145405,-0.05531436231598555,1.047498142289662,0.04866232500528981,6.803304243528717e-05,0.008652519979468122
138,-0.05727175914206751,-0.3256861217384177,0.034076559284583266,0.036471866384169375,0.954461657888984,-1.2105780396299608,0.0042470770197090574,-0.054836158192498104,1.0549869520614141,0.4403853194676428,-4.4661733488081855e-05,0.007935934333746977
139,-0.007834364916839854,-0.3601805534256245,0.0317898227694264,0.03334220399760115,0.9994689275025517,-1.2697371052649709,0.004215105183379095,-0.05917650413655508,1.0587520160902808,0.5539584432925645,9.829150661596623e-05,0.0023809983509099834
140,0.03199133384083141,-0.1095634348576554,0.029174100799946392,0.033879297003713,1.0314562811571668,-1.2054304949698516,0.0044808089817952625,-0.05939376387993188,1.0380818668715497,0.5800416477878277,-0.00042562136132747244,-0.00032055056389538716
141,0.06588489087821908,-0.09381901493979855,0.029584430249291412,0.03362098027569626,1.0595008418909735,-0.7412799905561965,0.0027207343034421493,-0.06000555422199275,1.023259955392566,0.5692600520026838,0.0027028111227438735,7.01280269507865e-05
142,0.09979837501089288,-0.06794124031851285,0.02959075738052864,0.03409314830808145,1.1031211418698303,-0.29148942970869085,-0.0005377699614950817,-0.06411807530264872,1.008639936009189,0.580932759362735,0.004543844560805808,-1.2815255108062298e-05
143,0.16263217940309108,-0.03491310677413581,0.029438558007764886,0.029697056686524156,1.1165139536601123,-0.47246032779769515,0.0005474958360155987,-0.06357376469219143,0.9665007328517351,0.17397506267766527,0.004238896355336122,1.670634402127042e-06
144,0.19163923057430338,0.06621123275247072,0.034093256713553545,0.029576314906993695,1.1590690090770723,-1.3144329231740626,-0.0033680131425347995,-0.0637256499279748,0.9312019950998368,-0.20099357265877688,0.004302663388657408,-2.646350062655602e-08
145,0.24097004803865735,0.20540063042469653,0.0382309805870855,0.029511135261736068,1.1593967189610557,-2.428969802486101,-0.004348394661595678,-0.06367937635795674,0.8825074591980597,0.2748611698172997,0.004640210239422132,4.1426128492275087e-07
146,0.27693044123592414,0.2508378593183426,0.03786336534352366,0.02954428968266543,1.1280336553086785,-2.34777114082394,-0.004246670356514399,-0.06372391974157637,0.8619802587716157,0.8663940418326932,0.009047341219498595,-4.118338301328052e-06
147,0.2956088252090597,0.2284879766362729,0.03812750911337908,0.0295335403732416,1.1214609407662677,-2.2215681773154725,-0.00421290713150445,-0.06362900791739666,0.8295984189315987,0.7214780938869818,0.00812029188715949,2.3930842973803625e-05
148,0.31183654909682523,0.18630383550354748,0.03740252615553301,0.029536422401512035,1.0886441700269676,-1.980028984789956,-0.004474222441482453,-0.0636635196200559,0.7909230383241768,0.6897576202221561,0.010716246294177393,-0.00011347453207256006
149,0.3358161535046067,0.15175402369551688,0.04133704311146204,0.02953574576220008,1.0683570934138438,-1.392777207442881,-0.0027614843792974305,-0.05916735388742976,0.7629559343109747,0.4912465311458657,0.0131029083474406,0.00046250489447618857
150,0.34607532992911294,0.13936070849106175,0.038871584100085,0.029535895214107488,1.0283511710637347,-0.6373914544611224,0.0004292006436520554,-0.05956382673924071,0.7111399870564364,0.4345477386182439,0.013238359624716426,-0.0032982617530619984
151,0.36226255492024734,0.0932442907757736,0.03811062049368804,0.02953583966239369,0.9921693083337985,-0.36045621263273375,-9.38722417102865e-05,-0.05939045749466086,0.666107583403237,0.339267240962125,0.009057357031632369,-0.0044133056141532085
152,0.38425282787821946,0.08507537858999707,0.033729178706208535,0.02953585383184352,0.9480921265428242,-0.31266923239949157,1.9251366752745492e-05,-0.05957031209806127,0.5981781995186267,0.2766387143345122,0.00857209906598654,-0.004288798676045138
153,0.36343992971724765,0.07587737438952262,0.03352699586055612,0.02953641910899901,0.9134129748842881,-0.26694122543352256,-8.07608112326632e-06,-0.058988216138057006,0.5416085118523144,0.22475222396474023,0.008565771055588704,-0.004287187402588076
154,0.3517481434418082,0.0502683622135705,0.028190133345686562,0.02953163029823687,0.861119642540606,-0.22976849208371092,2.482774176690495e-06,-0.06274092090245723,0.5135055683092933,0.17685879118208006,0.008591997319609922,-0.004293556748533959
155,0.327865702341086,0.04914818594390334,0.024802781876495098,0.02955932822099472,0.8212001841752634,-0.17600955016647132,9.983815297450603e-05,-0.06380986682977458,0.4808091970032316,0.12940526175886233,0.00857910042800514,-0.004293373860682789
156,0.3061820089094108,0.05058325398072726,0.01293982977639967,0.02942644965921751,0.774156617313825,-0.12085076739520442,-0.0009052677059832694,-0.06369202002639618,0.44910661672078517,0.09724061006060507,0.008594586068720716,-0.004281730192302077
157,0.28766916263352893,0.05476971559367505,0.0005771115575398109,0.029981440391372346,0.7353336645184381,-0.11306915959714611,-0.004373293587663617,-0.0637134657538828,0.39946940028836225,0.06053581775343297,0.008541625437141669,-0.0043337392077595705
158,0.241289168867753,0.05986435758264939,-0.0027542377718316213,0.026381707461808904,0.6579770665063693,-0.11037917013840227,-0.006166349523071153,-0.06349006822969132,0.3797049527157875,0.030282261099432006,0.008728429827119567,-0.004147141263610968
159,0.2219406591320851,0.06820230897448394,-0.008044709496164957,0.02509385341883581,0.5902229382846007,-0.10983348847144127,-0.008844143490338005,-0.06507319119220303,0.352212845246943,0.016256256156461087,0.00821064158501244,-0.004664882292185616
160,0.19195353552847153,0.06735311117872428,-0.008462931850167894,0.025426452397753572,0.5338699794196203,-0.14113648138757617,-0.008536013386566947,-0.06837992370830531,0.33108973210117926,0.013281833010704876,0.012872329945070302,-3.2111545775282205e-06
161,0.16859928525613077,0.06726959919731607,-0.008459400583009431,0.02091980476067903,0.48939003778499696,-0.17981060443179062,-0.008196928277259645,-0.06784222161040009,0.2830060667409712,0.009231464424725607,0.00825115239227419,-0.00462452030300918
162,0.15006369193849192,0.06958726351750545,-0.008318232029181688,0.021191972825595377,0.4150240872792599,-0.1908980798366982,-0.012667722606696791,-0.06795873263747279,0.24176574276213414,0.022236286246519077,0.00893385408724626,-0.003940498398044526
163,0.13609418084285685,0.0750820741566426,-0.009285747237539414,0.021065791107614758,0.3787114652124978,-0.2112002931689513,-0.012700695424714427,-0.06793947560223901,0.201228449420734,0.04595199610718296,0.007110763027897912,-0.005771628946931638
164,0.10632470644937735,0.07614606665322973,-0.015239890064809138,0.021105470444364203,0.3049268753514714,-0.23874209089014511,-0.012571293488382759,-0.06793871687406217,0.16876053805650224,0.05322752086781833,0.0038332615667751885,-0.009009711776551216
165,0.09046128810126991,0.07581874501579215,-0.014918527574589837,0.02109521988044927,0.24129611569286336,-0.27678459126179866,-0.014061731664025764,-0.06792329711992819,0.1528256798388814,0.0662572660770379,0.004509721560114155,-0.008498788701261757
166,0.06481451443373727,0.08035596148540147,-0.011849368556227593,0.021096823333270193,0.20938209976244368,-0.3532013052844196,-0.017529354193423014,-0.06812045830756869,0.12813630843024876,0.09440112427618126,0.003846400984439056,-0.008569615879017873
167,0.04517040808108547,0.08677722931688636,-0.016194770033661102,0.021098957335989342,0.16750756727054888,-0.3639161148938447,-0.01646489903881483,-0.06668879974065617,0.10736726915284552,0.12509689681453273,0.008114704796873554,-0.008662388868589617
168,0.018369778390458065,0.09709365686503443,-0.016946919775266057,0.021092937148554754,0.1154743014001895,-0.4222390018044163,-0.020047696342552622,-0.06323788982297512,0.10265239810746254,0.17054006826492582,0.008596233579583869,-0.008538474458123172
169,0.001337866945530738,0.09207978667358525,-0.01688203444689031,0.021091820466281844,0.10218837238228737,-0.4835615212168912,-0.021716593096643616,-0.06383262120364576,0.08916019790157481,0.20315456912094315,0.008600955458862074,-0.013092781700268707
170,-0.021216772858282402,0.09284363168272963,-0.016870122225998502,0.02122257849187977,0.06790375030652651,-0.5006097316722821,-0.017063276114741482,-0.06354570572204704,0.07042471915494063,0.25327774855743096,0.008575892316882952,-0.012980650857445025
171,-0.020354495427273824,0.09342139871898575,-0.016896392924330553,0.020114279452928277,0.031198208469488228,-0.5247536490085107,-0.016774771921773093,-0.06407952797095111,0.04806987164054293,0.2888397026712198,0.008586515462992609,-0.01147529420664476
172,-0.02441257487621972,0.08664919788405777,-0.016786385592162466,0.016512945656229246,0.024696922139254354,-0.5643840210486804,-0.012352724770830914,-0.059607993982372875,0.02023942431444365,0.35486369229906445,0.008580910894484513,-0.00813593832880089
173,-0.024243027513081123,0.07618590378172405,-0.017293363040033902,0.016577801766300575,-0.0025126560249779987,-0.605130757502005,-0.01278105549942632,-0.059325552446309056,0.0076246464803878386,0.39351001092131976,0.008592719463534466,-0.008682035495554487
174,-0.037210391304786164,0.0757052700844335,-0.01421632367468503,0.019505715472554194,-0.021469619909996625,-0.662403662205327,-0.013132129476818605,-0.05484104481821629,-0.003459545637706835,0.4168301728478999,0.00855288582218745,-0.00856561446784411
175,-0.03367235935733277,0.06179894876860466,-0.012306289620801105,0.021482397831609504,-0.028841318150967563,-0.7131649995219795,-0.010123392890044111,-0.05530843550968569,-0.008581216343671793,0.49511020325941923,0.008663499777611418,-0.008586088645940612
176,-0.03401053192069975,0.058983454222163834,-0.012989176502420527,0.02068941886311655,-0.03326735893142198,-0.7265772295044238,-0.008627378226999528,-0.05526755064065155,-0.008965743460208593,0.5456590589590169,0.00853721233949314,-0.008583638708840673
177,-0.03275992978005798,0.05917922162583359,-0.008510046490339488,0.025309880544643275,-0.038055963462990366,-0.7677010385731677,-0.004974888347912759,-0.05476656747753895,-0.013081998930006415,0.567344540541721,0.01311557825072789,-0.008584065677603406
178,-0.02909690409586164,0.05808306437587576,-0.008474945244927302,0.02080823477363673,-0.04264572517216385,-0.7807475004215964,-0.004081274849393172,-0.0581235285899023,-0.014263244146936273,0.6319764183724887,0.012768433989231625,-0.008579646613739656
179,-0.029645938360016562,0.046411336014139194,-0.00858680252148315,0.02146230778240634,-0.04218968835789277,-0.8037355582128612,-0.008700291586846784,-0.05964518878485525,-0.017623173749125184,0.6766215219348514,0.012904127303974548,-0.008607410322201754
180,-0.029511456537658638,0.03877854377578878,-0.007254402655780028,0.019483865677687312,-0.04380948813820316,-0.8122646162919147,-0.007763012510455641,-0.059421919709009625,-0.017098698298221852,0.6888302859722364,0.012888659453003699,-0.008470733933819844
181,-0.029541703114005065,0.030896423775567547,-0.0033859625919464786,0.01829280945266611,-0.04715093928848593,-0.8323714329022018,-0.0036154255158050044,-0.05943966420335811,-0.01708205305099479,0.706017157862216,0.012789100704352943,-0.009045852767799595
182,-0.029531569688375982,0.01684095458280029,-0.006730068778880417,0.021579528382112974,-0.046586649402624254,-0.8516725685141605,-0.005788926984528438,-0.05961264589161034,-0.01741144687317197,0.7301115938561998,0.013181094466978543,-0.005300641505146898
183,-0.029538599255983577,0.00778271665285852,-0.008822658468432429,0.02101043645401928,-0.046814180740711586,-0.8476981494587335,-0.011307677923137013,-0.05819129348018531,-0.012864398959619992,0.7544008483346232,0.009381800655906216,-0.004165738786073121
184,-0.029588315014704374,-0.004868830241299666,-0.008041213337324557,0.021080007563956043,-0.04646524218380946,-0.8340410504922204,-0.012917038470452282,-0.056330914884849745,-0.01339167227086432,0.7774021301309423,0.0043166342852537475,-0.004296491212116472
185,-0.02901614960718996,-0.024918650019454425,-0.012410778579241838,0.02115721075888347,-0.050733546779346245,-0.8164974392306241,-0.01281727150389881,-0.059977737595009996,-0.01740249533652704,0.786187092190655,0.003997965744926844,-0.0043205227271022805
186,-0.023221962856168753,-0.03718296305598459,-0.012597598231993959,0.021241165087255914,-0.055360169572160084,-0.8084660297611375,-0.012554929340239407,-0.059342747608133836,-0.018151174124809433,0.7857182623866884,-0.00041144113918987346,-0.004077346466679312
187,-0.022781319869569733,-0.05410441570099752,-0.013272451497431134,0.025113498847592345,-0.05493944864397081,-0.767185831561276,-0.01701476074523775,-0.05944149600504176,-0.02452882737216126,0.7822096667423972,6.246575064020085e-05,-0.005722693113255614
188,-0.025315863985039665,-0.07322456865139917,-0.016858483448481707,0.020489077226402214,-0.05653642405015433,-0.751399614984854,-0.018417259055028102,-0.0595090126060545,-0.02317757780235477,0.7839705999922064,0.00028898574410593503,-0.009001380006089868
189,-0.028302359448947344,-0.100126299101919,-0.01959221057246406,0.021601605929779867,-0.059771806503324615,-0.7129371551418168,-0.033477022893752456,-0.05944994110260132,-0.021223979357467105,0.789628753145928,-0.002267858978579189,-0.008577571504909532
190,-0.029710737335855643,-0.10449751397410847,-0.028326618638497086,0.018908155808030406,-0.059834623941476144,-0.6970029871728992,-0.03836795185788349,-0.0640890308040902,-0.0214206927847699,0.7898957925727523,-0.007625358157520877,-0.008286989748875685
191,-0.029519126121582383,-0.16288240233521267,-0.029812169679494977,0.01643885722644641,-0.0562326856602526,-0.6836189837485888,-0.0404622316222494,-0.06247276816759996,-0.0214349427213069,0.7988097760961212,-0.01187863218625892,-0.012092315663443284
192,-0.029521527476291862,-0.17535717801524026,-0.02908025131861121,0.017316194068762798,-0.0553832774477404,-0.6646840052154489,-0.0427995839842849,-0.06048050869837505,-0.016913222014574212,0.8171078071191369,-0.021367541125587305,-0.017127916624035337
193,-0.02968316772037281,-0.21821292525094468,-0.03338701686471249,0.013145180889345277,-0.051107910770094085,-0.6612581056652176,-0.0423758438774304,-0.06423431219509054,-0.017025658690138917,0.8516645202969336,-0.027251747486436807,-0.017120928183594963
194,-0.028477017749399737,-0.24539295690222562,-0.04188128763184582,0.012618159220755654,-0.05100555733469585,-0.6265624677583141,-0.04253202300342257,-0.06357565291307196,-0.01879307264180223,0.8627638628536699,-0.05207852565349437,-0.017188431306865894
195,-0.02449842993385338,-0.3034378331896034,-0.08325782979053016,0.017096210542174285,-0.050935504419483565,-0.6062436818553746,-0.042623456987193456,-0.0637157428653341,-0.021489459692341145,0.8973089142765303,-0.06876324746252044,-0.017160899629567693
196,-0.027695399495234207,-0.360030441380035,-0.1077840774575537,0.01677691345481047,-0.0509124946804663,-0.5735922385105373,-0.04644425072107132,-0.06369277224204568,-0.024070094246240698,0.915162496366807,-0.08789699634228575,-0.01716903965101813
197,-0.02994791445152358,-0.3897197297463784,-0.1646472165872513,0.016929117481815182,-0.05121267490707985,-0.5469975076279844,-0.042108661720885725,-0.0636931210406154,-0.026419298937891855,0.9426176728865003,-0.17678221756997348,-0.017167020014375797
198,-0.029093227126125797,-0.4597118084053884,-0.20538555449797494,0.01676729840422837,-0.049056286495957786,-0.5243329926064499,-0.04127801148579597,-0.06367314501420031,-0.021724417246704927,0.9483419003785941,-0.24599431216857498,-0.017167437637970757
199,-0.033463091796275,-0.5164857882449215,-0.19965108673159396,0.017307740212982845,-0.04287210080801944,-0.507893151904769,-0.036224254206526016,-0.06389049580214205,-0.021429482094261588,0.9638518532019593,-0.2491995245938397,-0.017167403719782124
200,-0.033756405501642446,-0.5472374449407952,-0.21208744922309059,0.013882426696402375,-0.046065384211285525,-0.4797786415208998,-0.047896504885654265,-0.062362958185895656,-0.016812426405575974,1.0040488169066972,-0.24894007930815493,-0.017167362155942334
201,-0.03332153687691274,-0.5884711738411327,-0.14213628349319635,0.012251958580190252,-0.04662781454010356,-0.4655755073032569,-0.050874811994030315,-0.05901322137747499,-0.017600992029761606,1.0241144235821222,-0.24945500854541405,-0.017166913259881324
202,-0.02911035683904323,-0.6144148845987558,-0.029970967615859816,0.01653700723420264,-0.051146109366094636,-0.44831743390511974,-0.09851149814378081,-0.059513532088219134,-0.015173400551683734,1.0532188439099215,-0.2513271229212375,-0.017171556994294315
203,-0.029667286009375498,-0.6479572206269307,0.013453304229407825,0.02115089143780237,-0.05068023728798816,-0.4110290352988643,-0.10600023069156869,-0.05955466877627273,-0.014695325960975881,1.0703285828439872,-0.17463565284811242,-0.017143006366036787
204,-0.029471598433722136,-0.6885832419180711,0.015932314321043195,0.02165620640060115,-0.05220927974842505,-0.38748981656922393,-0.10655181509502738,-0.0590892760521245,-0.017584834019260906,1.0549060989360382,-0.07171972407252496,-0.017283771739996564
205,-0.02967577480181766,-0.726667929323296,0.032220442073120234,0.025503458669839992,-0.055643892470022195,-0.3561089541264078,-0.10424767086606088,-0.06357617890464638,-0.017095782043776403,1.052367234050336,-0.06135065251426523,-0.016689824072974646
206,-0.029079253107458247,-0.7410395525507103,0.06033847155730515,0.026877306941110977,-0.055091143544828955,-0.30741109715688797,-0.09506342448023213,-0.06386002038266031,-0.0171754569089428,1.0104262150646417,-0.03552890072084594,-0.02049353397259704
207,-0.03339793673409694,-0.7641601223188359,0.15177500997929877,0.02985857656990439,-0.05525381188433627,-0.2649524923218547,-0.07859248058779968,-0.06831212013506474,-0.017167746967271302,0.9790076282459814,-0.019222216079422264,-0.021445837985160424
208,-0.03370354701814868,-0.7783525191400855,0.29153564918188773,0.0298962205509937,-0.055103845920780894,-0.24072205147053136,-0.05825783686257306,-0.06789068874528978,-0.01716613990093366,0.9523347530279082,0.07119051948775995,-0.025578876680105642
209,-0.03788093511743613,-0.7816833465692816,0.2926488324279361,0.026175439335365674,-0.05535401291467321,-0.22058229925270406,-0.05175087957811041,-0.06758146118472712,-0.01717285962000186,0.9328560679787693,0.16103414515557685,-0.03473398523884501
210,-0.033456391514730045,-0.7646827023620122,0.2705622388650272,0.025217442296115482,-0.05080823302416218,-0.19775221405491883,-0.047142928252785286,-0.07036445444535398,-0.01713878313044677,0.9053617343743232,0.25473585014110517,-0.03417137941135436
211,-0.03258624047076639,-0.7607038209639929,0.20666699234728614,0.025315974395778824,-0.05105253769463647,-0.17379815705192747,-0.04236415903717069,-0.07238762778719929,-0.01729667232160394,0.8576295028410184,0.22866595755087793,-0.03427374849902148
212,-0.029052449062013135,-0.7281890758625397,0.2017639253435758,0.02532425853060996,-0.05090312054781817,-0.14845247901886183,-0.013857032002609456,-0.07243435305195066,-0.01666422365226395,0.8315981418624329,0.20490595759693236,-0.03488283343594023
213,-0.029654370502787335,-0.7115138798086718,0.1747621573900583,0.02529276324751656,-0.05106757611510149,-0.1043254671391037,0.04698884364884918,-0.06831793116974576,-0.02077760193300673,0.762811154345528,0.1792063547106003,-0.03108315201811059
214,-0.029482361977388263,-0.6859962743618773,0.1488745687525656,0.02543862821668704,-0.05050505238163762,-0.07266543957667707,0.05853382985013483,-0.06349120561503757,-0.021250827235527,0.7234052652599682,0.16643348002879035,-0.03349148590351258
215,-0.029632574111225714,-0.6752587888357224,0.13510564285309454,0.024287218249426288,-0.0539692453337843,-0.0568981865555185,0.06469347531967773,-0.059182702451584836,-0.02574490692282303,0.6817261513164461,0.12417136247414808,-0.030694544579516512
216,-0.029390229591058116,-0.633104141359857,0.12241172903365105,0.014996861728368583,-0.055381221873473115,-0.04510226028848886,0.061573821812121135,-0.05956068467757237,-0.021182289014170495,0.632472870680022,0.11598093434700012,-0.03002122986066968
217,-0.033888471951484034,-0.5995450962677263,0.0968152717639779,0.015782552829397334,-0.05517544793150826,-0.03866241401690946,0.05283592424366793,-0.05932297014905228,-0.020627861615117822,0.5863234628724504,0.10224872640933805,-0.030024615062761346
218,-0.03382189467404312,-0.556554463331233,0.09587828696999014,0.013438475182564474,-0.05516014069078418,-0.038486343721861827,0.04719187076403055,-0.059893604720432654,-0.016301928677449735,0.5069739974054446,0.08754223335735968,-0.03001630959284808
219,-0.03264587074149746,-0.5092332681180033,0.09714585796898902,0.012604775993738854,-0.05577070254034158,-0.0339703765461188,0.0424586233027068,-0.05657455610887943,-0.019547523786471514,0.4741025693800876,0.055190522462393275,-0.03025587369772381
220,-0.029076082801378772,-0.46441846970119877,0.09719528904877521,0.012642023272136375,-0.060160963454549216,-0.03848291048810089,0.04221713717665357,-0.054989708756570235,-0.0218774442511651,0.41934629632813303,0.055957369658496736,-0.02854085338303499
221,-0.029645553614526716,-0.4198534932646217,0.10256707854342684,0.012666789648981023,-0.057603761205193935,-0.03875669950091151,0.036932776521126746,-0.05524174766240093,-0.02101982415528052,0.3653094774304715,0.05788892915382552,-0.02226243922295793
222,-0.02951262133955373,-0.332921795952054,0.11275550174099101,0.0126604400945754,-0.05470392988701678,-0.044469895089388874,0.033280748858796956,-0.05521499810007947,-0.025455702804477915,0.3570843081310177,0.06363673560427859,-0.024531853562531215
223,-0.0295416900608784,-0.3134483418338634,0.11969906856642684,0.012631939803222511,-0.055758825174993754,-0.046922924501198046,0.03625619102700119,-0.05474674062255384,-0.025723617255771807,0.28702987748323566,0.06443087067427712,-0.02592670305444824
224,-0.02953117373015663,-0.24990292119775284,0.14328567293982533,0.01277641210605485,-0.05155185341396675,-0.04700377106682966,0.03813269154846349,-0.050532004832084115,-0.025908645749367014,0.2607727467288667,0.06841150272514293,-0.02572984725289478
225,-0.029531514119441087,-0.2318993174842934,0.16011396549900173,0.012207513905710586,-0.05107570244789799,-0.04375705571964397,0.041300789796272226,-0.05110242244875593,-0.024687488644587634,0.2066086986079376,0.09332831666546026,-0.025419244973292194
226,-0.029657614691713092,-0.18031476763533674,0.1691838742245899,0.016097555034623894,-0.04658567118143768,-0.03875678871316907,0.045720971512767876,-0.05081232175938695,-0.02089874798999773,0.1451816002256059,0.12411999775743396,-0.02107715663011893
227,-0.028567597543434062,-0.13782884486971891,0.18533178356276298,0.016960124715733757,-0.04680759656383684,-0.0340203624238176,0.05929292119398254,-0.05141107950542468,-0.022024658181355097,0.11235312325074437,0.13943147494331354,-0.021500275006493798
228,-0.024892859788342894,-0.1336993606279203,0.19033937661983324,0.016879878586507212,-0.04665600142425085,-0.029337073242968095,0.06782846114690122,-0.04766634665326627,-0.018456591062304305,0.09177884610497711,0.16566271315286876,-0.02181879890581682
229,-0.025286175480830238,-0.10011350052846217,0.2354283603016857,0.01690314755215887,-0.04681921908171961,-0.023675415113443978,0.0716394709090182,-0.04652455211424093,-0.017089343656662197,0.08233583743431197,0.20207839946216183,-0.01892021839487974
230,-0.025865636957157215,-0.07465967850388273,0.2590983514566929,0.016648712455817984,-0.04626299095388031,-0.01472285345392679,0.0947196447811808,-0.04673596055285101,-0.016961662570950487,0.04053870625751185,0.2270873951021714,-0.016512360152868926
231,-0.02164122912847523,-0.04841773100556174,0.30435723639426726,0.01836217210118708,-0.0496546715988762,-0.012624114236685288,0.12326521217274314,-0.042196500415741925,-0.02151831963390786,0.025540642009888335,0.25656487713014753,-0.020915807748133765
232,-0.024724155413544873,-0.024717074400226555,0.3238449232185926,0.021495589794864867,-0.05114939128099908,-0.012331514144027545,0.16347728892449617,-0.04277963403282323,-0.022076182842836387,-0.0023117756836152936,0.2954285117053236,-0.02153620248667593
233,-0.025348710809476854,-0.015087076223679035,0.3485021625500172,0.021123673335051187,-0.05092383741106239,-0.0159638457708478,0.19515538605477956,-0.041024117264237964,-0.025057040517251578,-0.011270781246588603,0.32423365801180376,-0.016952670777030804
234,-0.025747000850750334,-0.0010558987258942158,0.36734288509383084,0.020692711362408255,-0.050925524878238655,-0.017114267239001398,0.2302656081364662,-0.03778796910100701,-0.021214804905433565,-0.030621303137787263,0.355379378126514,-0.017266854285390456
235,-0.0290705674330673,0.006093187259879639,0.3808915569180455,0.024798375059283347,-0.05147034816666426,-0.016980092729243085,0.2419764736273467,-0.038311362965700556,-0.019381849988002783,-0.044550475707797584,0.4210838489371969,-0.017136512838317703
236,-0.025053687952416127,0.010975951096044188,0.41267341623331966,0.025349782106301896,-0.055893794382529526,-0.016980830577625342,0.2528032836094353,-0.0382008924567931,-0.01633842088930435,-0.06260889814490747,0.46212275344827286,-0.017175321184658934
237,-0.023569876392275084,0.012913327148032887,0.42725673000065184,0.02539876478507409,-0.053432584175417214,-0.016987148465397083,0.2857792758457329,-0.03821265119223886,-0.020868525278896388,-0.06438260034543478,0.5095961659636608,-0.0171656161737858
238,-0.020569988160712878,0.012631907325316213,0.4460823251223211,0.024593350035369454,-0.05042799927977522,-0.016984597278319545,0.32973375438060826,-0.03822339923404791,-0.021331904108524764,-0.06899088530850035,0.5447590306822147,-0.0171677392100009
239,-0.021611076774947148,0.012622097413756434,0.4594985753161352,0.020733153156903588,-0.05160622702919055,-0.01698485097150793,0.37245967805108393,-0.03829093182796053,-0.025876521361140412,-0.06839160879947909,0.5722356519860701,-0.017167256149159593
240,-0.017473425658990956,0.012630807409073993,0.4740742815263278,0.02082217405070376,-0.04708789134959053,-0.016986978362710257,0.3858377266337065,-0.03743867880241554,-0.025466996684587257,-0.06972763759098989,0.6216321412903548,-0.01716744524827009
241,-0.01682411691447213,0.007598142004239026,0.47078976542475465,0.02348970708054,-0.05058155208141042,-0.016978474489115023,0.4220190278483299,-0.033804091351722916,-0.02718476933759897,-0.07592187887290162,0.6358951941867299,-0.01716853825746383
242,-0.0168162642863474,0.004852561549434523,0.45677686120611927,0.025522211977309122,-0.050903989505808094,-0.017003587707171832,0.44234812161176407,-0.032299464631860536,-0.02875170419020801,-0.07467535860020393,0.6459992595835917,-0.01715685399205955
243,-0.017522693742918868,0.009007499936198237,0.42628365410803476,0.02556440555797998,-0.05149610152487781,-0.01696444716813583,0.47469997640663547,-0.028950473509614896,-0.02524763927518399,-0.07309765836289632,0.663829731483937,-0.01722936118925027
244,-0.021461700479966914,0.00818929877263604,0.3851358648110645,0.021516038065045304,-0.05569295866194089,-0.016776834762941967,0.4841844044055531,-0.03255354635484746,-0.025822951487800977,-0.06914728655115157,0.6595258647868449,-0.016869878057194736
245,-0.0213477272205457,0.008923354713844494,0.378745822530342,0.01673406323485873,-0.05470969237004274,-0.011801460950431518,0.4834531001472294,-0.037388958140193204,-0.02583120980790313,-0.06866370075082377,0.6488718833783008,-0.019323155760823173
246,-0.018827542924457874,0.005165617749477567,0.31255439383961364,0.012376475762632634,-0.057527900994609055,-0.0069520463626983105,0.45893637085277295,-0.04230424678045931,-0.025575626557057425,-0.06864542793226645,0.6016808624345674,-0.025091175752256986
247,-0.01645378920710786,0.00410263862458553,0.2838487113122691,0.013015243079385714,-0.05963886198263704,-0.003487267852427476,0.437721302104167,-0.04238773973158987,-0.03018272059648644,-0.06870935598179678,0.551870830332085,-0.025518626226683834
248,-0.017281644951287138,0.004222635522608443,0.24008542910468483,0.010964422418256443,-0.05978566410884584,-0.006841680582062325,0.41649982694096543,-0.04307453622153742,-0.029653016362782354,-0.06848988328012263,0.5410478350817721,-0.029984297943224898
249,-0.013013470355910748,0.004217677056592174,0.15789364482941967,0.008564923297044936,-0.05551762715511563,-0.008751038378681561,0.404986878706998,-0.04745401669882078,-0.03231174559807436,-0.07003080092708171,0.4991278454225115,-0.030261693165220347
250,-0.012748323323026436,0.0042712768590597965,0.10818273816365545,0.004328087858115525,-0.05521913116122074,-0.008453767036756226,0.3386434301510997,-0.0565831214865348,-0.03989128764473997,-0.07748030814459536,0.41363642986090093,-0.0351171383497291
251,-0.01697144031760119,0.003905334048489423,0.009339462285653417,-0.009890215523471944,-0.05518030077352249,-0.008495111107190019,0.29186979973855637,-0.06455149122815447,-0.03613095641886445,-0.06726572664442534,0.39334749903037186,-0.042027635331106004
252,-0.018163087189160886,0.006159183367428125,-0.12262670201534666,-0.014030652051316173,-0.055203983049103324,-0.008492097974568555,0.21044379396026908,-0.06447001690830982,-0.033622028770885284,-0.06412178057394434,0.19783143541408682,-0.0461842179259925
253,-0.018849794902253605,0.008808950825201034,-0.2510953539549994,-0.007933777368694587,-0.05523206628949591,-0.008506726312197064,0.17344124372182984,-0.058502099151277985,-0.03797098623614901,-0.06438881488592577,-0.11237856658224557,-0.04158653813427819
254,-0.009590613018942021,0.00836677280099084,-0.3342608760685718,-0.05254950015068155,-0.05505408283719569,-0.0084005733054875,-0.05797075658932296,-0.07890369715465698,-0.038678711220166646,-0.06885651526466571,-0.22708511733594386,-0.047412865562733456
255,-0.008194546046781744,0.008451256186501176,-0.4319239159820677,-0.06035942466798012,-0.05577981711963599,-0.008954076734065005,-0.2928728710367779,-0.1033880375257381,-0.038626457333402094,-0.06949294998584198,-0.33664011295080926,-0.044283367838496526
256,-0.00884400939975053,0.008435696516483064,-0.5794489818887489,-0.14109318491712788,-0.05138954113308088,-0.0057488559527679025,-0.43304626379620326,-0.19401209661832025,-0.03874818518996592,-0.07355541191638908,-0.5329481899447949,-0.09332573326003368
257,-0.004737870252197885,0.008423610283698299,-0.6766859192612245,-0.20522229534543965,-0.054776100584213124,-0.006439477637148491,-0.5455446720055788,-0.26964151584347557,-0.037783070952473845,-0.07239605071029434,-0.6642514230094586,-0.12280742218739489
258,-0.004165021709753763,0.008607610248661648,-0.7730732457629065,-0.20113169770195524,-0.05518513698427126,-0.012652704417811512,-0.6544550164499551,-0.2630042859389176,-0.04398954433162569,-0.07584652925054812,-0.8817587124050358,-0.18607135276044204
259,-0.008542787018874728,0.007247267433108642,-1.0101222514184256,-0.20589437799338323,-0.05526102477160019,-0.008722961218242736,-0.7762933513989803,-0.2683426985400203,-0.0527940607121505,-0.07738550332327646,-0.9652350336148788,-0.25134332160473877
260,-0.00935867308806473,0.0037635301856319657,-1.1474727234804505,-0.20645937952768895,-0.054948374658061565,-0.008536660568850933,-0.9362878082054563,-0.26752975765792836,-0.05090048869599514,-0.07740782901283563,-1.1737799903079902,-0.24482044093434754
261,-0.011711701795378355,0.004356483896176512,-1.2910336918741756,-0.21423762946158542,-0.05677896157442357,-0.008464366311889522,-1.1154137119556724,-0.2687790072653956,-0.054891876124094956,-0.07286904100304183,-1.5208603640158755,-0.24976252907838703
262,-0.00826162642020148,0.004078831435700759,-1.366723199713006,-0.20404071395413081,-0.059866686744999224,-0.00849577702722133,-1.4373431064774558,-0.27394548371515154,-0.0597733115079798,-0.06845231866151703,-1.6729732328101445,-0.2518064989856752
263,-0.006107514517983404,0.004590806312242677,-1.4781805701625386,-0.1194317172518995,-0.059359375523498674,-0.008524668148066307,-1.6002943603723454,-0.1521996369334933,-0.0644871850953122,-0.06875201551182085,-1.8053547887534163,-0.25919892812824147
264,-0.0036585007718741634,0.0002561563206458315,-1.5102058351008272,-0.08543300087150361,-0.059463443570005124,-0.008341329066692788,-1.7738470955842716,-0.09476566060769835,-0.06438691785898892,-0.0686525331878188,-1.9755317457365287,-0.06374550602429646
265,-0.005032902644850386,3.2326570501286534e-05,-1.6034298454976028,-0.028502163066711998,-0.05944614651048307,-0.009063413228358552,-1.8593477473052074,-0.08466236305660087,-0.06384860120156027,-0.06864305456476998,-2.0525007150283847,-0.03134298157708904
266,0.0040467004727183006,-0.00014980215797826687,-1.6548056969082254,-0.03965243465863311,-0.05944794204397517,-0.00458669129048549,-1.9724432649465127,-0.060853996730285805,-0.06790425386607774,-0.0687941227574043,-2.1292163263255666,-0.01841617627340476
267,-0.00018719253000482245,0.0009818679658465765,-1.7363857133069471,0.01775022895007248,-0.05944825739231536,-0.00818746583224456,-2.083389945703834,0.013060043697262526,-0.07424187588235599,-0.06826640921643823,-2.209032350608796,0.022108912533326985
268,-0.0004934557491394858,0.005031277211175939,-1.7616165065733675,0.08945477067933714,-0.05944663766213917,-0.008455483710043038,-2.1610572885813637,0.07536515712018287,-0.06959601362172134,-0.07266983302332167,-2.245009362982369,0.032639095541201084
269,-0.0047095454422455656,0.0018939336219149778,-1.6899373768627706,0.21096237825666908,-0.05945518257147826,-0.008519716133026586,-2.2525072904525865,0.03155458033913987,-0.06891370020513654,-0.07296383097113664,-2.09218339187263,0.06204126045530703
270,-0.0040807298680672335,-0.00030311074819457324,-1.6541486265971308,0.20275230446331988,-0.05941489537807134,-0.008501059619435375,-2.2859785262263204,0.1676605909028328,-0.06452346438778059,-0.0724498094980987,-1.9755770422740901,0.22238993079604838
271,-0.0042721107830041806,5.514104987003348e-05,-1.602235265619452,0.18923699147488007,-0.05957937028524619,-0.008395665420809975,-2.3136047074226873,0.14984916501528275,-0.06418859928603345,-0.0682936431501202,-1.88314750403785,0.2359540049069887
272,-0.004133383924519351,-1.1179408113003782e-05,-1.4997220891776264,0.1794017268507319,-0.0590100001827246,-0.00893425151018078,-2.231433670869653,0.1268964511983941,-0.06019728560019637,-0.06842468792344532,-1.6000793114437026,0.20238743387885466
273,-0.0044708662138392445,-9.697940610479295e-07,-1.430598419647665,0.1594958694209542,-0.06337602273380659,-0.005576613762224489,-2.1236194223449534,0.1161497793986008,-0.0661718906050895,-0.07095337143739512,-1.5748643751442541,0.1590542117893999
274,-0.0005568520274301684,0.00010372864977997953,-1.3187874111208693,0.12757995122002422,-0.06370063848703242,-0.0040500146179807345,-2.080023420003387,0.0922031917413031,-0.0690716278957086,-0.07331500888657,-1.337520134628957,0.12349660960606915
275,0.004194885218914588,-0.0008760532521943003,-1.2443458044743425,0.11167461896217157,-0.06823137624890187,-0.004270477015415747,-1.904736307015952,0.07412911622275914,-0.06815104147187154,-0.0728052624687824,-1.1114649343405636,0.10877621178338989
276,-0.00035543512244460825,-0.004781010044117641,-1.1585558463246628,0.10706622408563758,-0.06782064940432427,-0.004253510574918551,-1.7704060730736884,0.07549353327889467,-0.07176432525844698,-0.07316741797004213,-0.9400156872325534,0.09491422142399822
277,0.00012210150041292562,-0.0036037151271736813,-1.0054173487624125,0.06860302006150756,-0.06798236919590041,-0.004120995651135722,-1.596758589705846,0.0419570863584349,-0.0731892719859394,-0.06856917701602272,-0.724881463772497,0.06295041063853207
278,3.000272553043042e-05,-0.007231103046222108,-0.9407994077928303,0.05912413902427761,-0.0679011310485366,-0.005216389102503061,-1.5397546917205651,0.030876699739839072,-0.07285025555507425,-0.06871492670330896,-0.47030806333850883,0.038022573570210196
279,-0.00030530911215510587,-0.005873183807606511,-0.8013967094594106,0.05024717945680806,-0.06806510768291234,-0.009311689036228709,-1.3284283630845428,0.009179580856380307,-0.07763432340197612,-0.06893542037569726,-0.20056638038722652,0.023601869369201448
280,0.002288857065422695,-0.00035116662141203737,-0.6803499460576421,0.05145591851321678,-0.06752624045848961,-0.006140517605260369,-1.1369971161638353,0.008580644501074245,-0.08180080901552539,-0.06680565475767967,-0.03304669319513915,0.004843027325029336
281,0.007714902305143139,3.299387644953007e-05,-0.6283459928245492,0.05520968132995405,-0.07177203908483201,-0.00394342013921072,-1.024509727511708,0.0029954196681646083,-0.08155084705741701,-0.064542412787047,0.08135267231195506,-0.013697922343619284
282,0.008596979617973155,0.00029540425193595596,-0.5278207182620845,0.05478297000818886,-0.07218974400967478,-0.004305746375684649,-0.8979316400643541,0.00010037333246534758,-0.08109175541051937,-0.06099503101962924,0.1680446013747126,-0.018893110167867388
283,0.008402919477207848,0.004598543315893807,-0.4481528796213974,0.05473835607038608,-0.07220550006716366,-0.00422308499241659,-0.6904017612760635,-0.0021978131280924987,-0.08438265513953663,-0.06347394670081843,0.24626488391487134,-0.026312595967079626
284,0.01287073465861415,0.004072218909915974,-0.3442870509960228,0.056551260151734235,-0.07217868700321958,-0.0042333531980894646,-0.5556983977263936,-0.0027249154825126952,-0.08346394260942808,-0.06445799156727149,0.3129535946000445,-0.027596002735996678
285,0.012728529133377115,0.004388339823897664,-0.2674163105128384,0.0688304916884823,-0.07219089631628824,-0.004715789695164762,-0.5324681925199969,-0.016747980082259275,-0.07757038008181542,-0.06440098660786052,0.43230114550291965,-0.030149910297173243
286,0.011506739803439962,0.0036323990878800766,-0.20073564625003448,0.07941295498864476,-0.07217826507637475,-0.008847064304151848,-0.41789688352717846,-0.01828282939290758,-0.07734862305839979,-0.06420896166177915,0.46534690109018123,-0.03267975454322429
287,0.00671941911217866,0.007762281422650692,-0.1472845769719256,0.09302220776592068,-0.07221919855057304,-0.00873528438619844,-0.38432754763731414,-0.01701408637017327,-0.07275472950407523,-0.0655652829427547,0.4496609236074175,-0.03848247662949646
288,-0.0005664436080537955,0.0049089106302714,-0.09280264331119369,0.12497866424675265,-0.07207671921765547,-0.00628761863231707,-0.2783742427423671,-0.012535193347222908,-0.07325864923462773,-0.06911748208530477,0.4126142479090573,-0.03450862140916416
289,-0.008252297581616545,0.004301844329932368,-0.05490994983176503,0.1539668991495668,-0.07246512778352618,-0.004148977092337402,-0.2344444957215672,-0.0070631156996189635,-0.07157679373026844,-0.06859677526890631,0.40637439680813714,-0.029914222577189543
290,-0.004885842788934963,-0.00017126736613017496,0.007845550070232757,0.18843292164610412,-0.06797344166823575,-0.003493907524107058,-0.20592276892177688,0.009510092301088114,-0.06854692863302517,-0.06856702891349654,0.37713317019076525,-0.029871651399673092
291,-0.004163631323979733,0.0002739540008553019,0.03451199984693314,0.2070640925506987,-0.06810172571555664,-0.011956217453583853,-0.1691546317058006,0.025372401401902982,-0.06658691164203419,-0.06903191127418572,0.358010328813954,-0.021437220155873273
292,-0.004148247025227369,-0.0012740654599366998,0.0668264479102535,0.2528563233382823,-0.06704989146541225,-0.012733604293787679,-0.12725848544791551,0.03468278126164149,-0.061276667863070726,-0.06455151192777335,0.3340874819812289,-0.009804145950958165
293,-0.004920641964154482,-0.004175532086689274,0.09618880845344106,0.29472122954361685,-0.06326502861013679,-0.012883030728758146,-0.09672772268996413,0.040360156309446595,-0.05653350262411908,-0.06436514749288248,0.3205191709569434,-0.007019792329387724
294,-0.00858145185823309,-0.006915570102278063,0.11861704980856723,0.3174868278236737,-0.0637189733669164,-0.011825388928141549,-0.07855885559762331,0.05271619877234815,-0.05169083617682383,-0.06505562257319311,0.31019644321209516,0.004873649621002917
295,-0.01014748863218561,-0.005728640408626597,0.14279439816244271,0.3528727823975555,-0.0640329544055517,-0.007941685550312416,-0.02829712345446688,0.05902558545856364,-0.04686283101269357,-0.06892070612868229,0.281728197532224,0.0162256882843733
296,-0.01275590556618464,-0.004353379165961634,0.15240613879126844,0.3912236189719229,-0.06076721071869661,-0.009062131622685269,-0.011497362773682658,0.06815796395799854,-0.04199400619906213,-0.06998097720380062,0.2710149514599459,0.021363670008129044
297,-0.015067921486217191,-0.0003139589501010942,0.16216616485434202,0.4361978629501478,-0.055805658326919784,-0.005623831230340083,0.010315873234543547,0.0774585132590736,-0.0374099476925389,-0.07601143892406985,0.2338525291744839,0.02647161721794837
298,-0.020527523881544402,-1.8856709808414374e-05,0.1703789565811416,0.4750696195153679,-0.0510190164290592,-0.004441620319212349,0.033870990019608804,0.08851632928594455,-0.03090379282081552,-0.07698238902737067,0.21867356043452704,0.035621692019694486
299,-0.0212098608431869,-1.0438311444414772e-05,0.17492655813842142,0.5234982640076069,-0.045864104251396746,-0.0004457619527742755,0.04208797795204371,0.09909902363548169,-0.020010469649777374,-0.08097594498949152,0.1905919653358172,0.040261729874960094
300,-0.021188211701017187,0.0002356650133586288,0.17796078486166492,0.5532265218008025,-0.037463350482088154,8.434414017657703e-07,0.05084747917162103,0.09563556449219468,-0.014929573227010676,-0.08149335997907214,0.18425474203399345,0.04318625286651204
301,-0.025470174387424334,-0.0015617574484405236,0.1743381545092619,0.5907201318717943,-0.03869111929935649,-0.0003380588221767736,0.06006454477211596,0.09036942000634168,-0.0015062136658688828,-0.08625283833960595,0.18232509176177322,0.04330823180605289
302,-0.026316830891706073,-0.004638481275555726,0.17243641442529167,0.6153337709663246,-0.03647519745704555,-0.004671368982207506,0.06485625024884396,0.08899603080895648,-1.1916613376248934e-05,-0.09056636808030738,0.17746608087117877,0.03965734955383993
303,-0.029393912499431876,-0.00412980004953346,0.176936529739014,0.6437106198124882,-0.03134982939949056,-0.0040345580761636055,0.06796803561085947,0.08919437505039428,0.004551453495303355,-0.08882626799074865,0.1687375264970634,0.03861991625473003
304,-0.03338982005361237,-0.004234928180352162,0.17719926582272008,0.654120618551902,-0.02665242071441433,-0.004689253995818094,0.069999746856056,0.08917179658601465,0.011577463184633676,-0.08500399267938478,0.15914348755888297,0.034599033104693165
305,-0.04106050632369071,-0.004218738458747989,0.1772754184820555,0.6643704058983207,-0.0218652234798961,-0.0016137858908430807,0.07207579854105262,0.08916903905630041,0.029767910367497843,-0.08849805660663605,0.14504866525113996,0.019961497178387206
306,-0.045287973312287164,-0.004219144607811135,0.1769097076005781,0.6844286748535908,-0.01709424430046171,0.0003397294002776151,0.07546804460787031,0.08918802462872616,0.037649023765665215,-0.09038060754772435,0.14165900233345816,0.00788994816182222
307,-0.050067158008821076,-0.004193742436892157,0.17906395249068116,0.70947370982218,-0.012325009663925796,-0.0002806434978170352,0.07626959289309532,0.08908317030861151,0.050611540835810424,-0.09009100963062,0.14061367570208452,0.0075221920138963455
308,-0.05481762162051533,-0.004432109549229508,0.17977616331980004,0.7251915686748412,-0.007508047700522569,0.00413814340908127,0.08060581795653052,0.08959014022377991,0.06230736290992785,-0.09013241448025394,0.1349289363720399,0.003649516979090778
309,-0.05997557767363936,-0.002814108465984925,0.17674101912668053,0.7260620078047949,-0.0030070476833336545,0.009027461865864988,0.08059499446722367,0.08652571795640673,0.07124460117972173,-0.09014799229345938,0.13263658506342518,0.004925911460996725
310,-0.0680064815922255,0.00043407301881508923,0.1774102499906965,0.7229013258048025,0.0035644615770381513,0.012455450519336593,0.08089203361192414,0.08468121046243168,0.08546205055580083,-0.08994661182627518,0.13359740641270765,0.0008427832078837763
311,-0.06867664630640503,-9.736980001056799e-05,0.17690272678066057,0.7151201373985052,0.013982522590617472,0.006586190109514739,0.07941737128781041,0.08494416829561358,0.09515478236375895,-0.09139938565417828,0.12910534989325406,0.0004157682908401722
312,-0.07216462328020096,2.069880483246784e-05,0.1813518852891679,0.692652601109463,0.0202245787639708,0.003917746222304829,0.07547634759098801,0.08493982332983455,0.10497381038190164,-0.09527964978748141,0.12889303083488443,-0.008317871155780907
313,-0.07186156361088256,-9.185355172108911e-06,0.18138031735093335,0.6744151449897606,0.024790440713541757,0.004444289264822523,0.07956951280145365,0.08513954332126805,0.11413992961861348,-0.09169628778333055,0.11973169317037478,-0.012968609913775296
314,-0.07088366903676772,7.5531525143624e-06,0.1814647682907664,0.6619830755875112,0.029580157384505673,0.0037669954668697,0.0777562493632154,0.09023669200877109,0.12656579296724055,-0.08988983342933222,0.12033498768475258,-0.012855103368961585
315,-0.07902117713353189,7.138636444987234e-05,0.1814045683042713,0.6378128833680885,0.03428679164108832,0.00804427103515136,0.0762288005729888,0.0943373480477026,0.13611055340939276,-0.09016017073865105,0.12042206664411395,-0.012733876095484726
316,-0.08024517191618186,-0.0007589984255977119,0.1815424080205223,0.6353739467233165,0.039867632334626306,0.008420975427623434,0.07647498191013603,0.10233694172233987,0.1408528642887583,-0.09012880762698045,0.1182039701599487,-0.01362943444967664
317,-0.08018868555280417,-0.004364519921550339,0.1809842114475876,0.6169517058461345,0.048773175185671785,0.012894323838375939,0.07677060564997852,0.10469995580485901,0.14122231705325522,-0.09015146086762678,0.11550440793950474,-0.007933388201888644
318,-0.08020012138638999,-0.005964656608115737,0.1844397452717957,0.5978439759183403,0.051983785216606904,0.013233943415981948,0.0803148837177606,0.12249618334704947,0.14997481785498148,-0.08991062713184081,0.11595072050580081,-0.0011503063406147812
319,-0.07988958839546023,-0.008731264608799331,0.1858053004591109,0.5865227260144014,0.06288199668933733,0.01844574850176709,0.07586824706184,0.15058033556385664,0.15445960850315105,-0.0916072002089445,0.11586938837491416,0.006845383717641588
320,-0.08193257654540345,-0.008799549813587347,0.18568683909790326,0.5511996075698028,0.07136085240496493,0.02352703187361025,0.07654754068783592,0.16399341472977103,0.15592050584763184,-0.09455077003725056,0.11588073082051852,0.021021878358156044
321,-0.08478339009158196,-0.00489734237542251,0.18575668532721737,0.526974037732428,0.07601080610375001,0.025451318023990643,0.0765530119109284,0.21018373466435677,0.16516539676607364,-0.09655514105870965,0.11588565555588241,0.03535441797598454
322,-0.08430776652940172,-0.0041585749805179125,0.19018957310535387,0.5114998189886304,0.0763528410805943,0.028091705547515604,0.07588142392841192,0.22718148898253718,0.16926995222207292,-0.1022371805292825,0.1158266045978468,0.051769764786043206
323,-0.08440104927702048,-0.004200947731799217,0.18973456890777948,0.5090889133574787,0.08080656084607858,0.03353565232057623,0.08042178563444943,0.25095254821387886,0.17431079693659898,-0.10316858889360807,0.11619784266796519,0.08268338569762884
324,-0.08438782473903032,-0.004363867734124756,0.19003513026525973,0.5525641739015976,0.08146768468978756,0.034001198821082636,0.07662228559515205,0.3047726600634624,0.1789967239287047,-0.10296669692495071,0.1138984141059937,0.09507972993644033
325,-0.08438973972834443,-0.00319171693766861,0.18928228012247458,0.6049570388958807,0.09407841490321527,0.033993601399303165,0.07648692747308286,0.3403416499845375,0.18413647927632737,-0.1075614518715729,0.11121599841445898,0.15272606404092498
326,-0.08435397696200304,0.0008212332817747057,0.1932326178533692,0.6654065161726838,0.10259365141620731,0.033801645008680985,0.07644669275792536,0.40032881638237844,0.18457740554181748,-0.10702713069792734,0.11165804214000391,0.20858679323450094
327,-0.08463116860695948,-0.0023840538071367894,0.1905001955514163,0.6921274823005789,0.10419765381236085,0.0351380603389194,0.07615110343324422,0.4617358154240401,0.18489379003565173,-0.10846483308241052,0.11157838907685878,0.24376357350723515
328,-0.08283647687148502,-0.004512199383467964,0.19379413610252402,0.775906912922706,0.10644739439019137,0.03898833825243454,0.0782623435794881,0.5298822170067103,0.18923142062122228,-0.11411434049933677,0.11158811707319616,0.28525295839186326
329,-0.07965818538259582,-0.004169214764936699,0.18993090203796603,0.842112825853332,0.10619117192691555,0.03596107329269774,0.0810678884139237,0.5927081067197446,0.1887444829809373,-0.1161694034676478,0.11158385284319304,0.37785542296980074
330,-0.08062394525613635,-0.004225130852925177,0.18997918576657397,1.1122639695866112,0.10605388526232101,0.0312178742177356,0.08060255312123148,0.6597144659253781,0.1887530274732556,-0.11572900005070837,0.11163053306303443,0.40337804535600313
331,-0.07713394193424143,-0.004219618361005505,0.1896407650220994,1.46849893705698,0.11066327598783103,0.025655366653810713,0.0806914070957998,0.726759968201546,0.18932292971603548,-0.11614127388349389,0.11133180965437275,0.4685015433165438
332,-0.07230802564674839,-0.0042190401550256575,0.1911883658120283,1.635698588917408,0.10942049838158305,0.029478564712364045,0.08067840756269051,0.8545903549757958,0.18546438979930038,-0.11159349978511075,0.1132688786063704,0.5227714887670214
333,-0.06752765432543786,-0.004219573827445794,0.19463611752853585,1.766815645491159,0.10700065404184649,0.029632714811777594,0.08067918648834725,0.9725818532228423,0.18466055252854074,-0.11206745723569049,0.11837633442971068,0.6368217950911049
334,-0.0675435430605815,-0.004219248698426515,0.19355105200393352,1.788917525586302,0.1109609878509774,0.030367337434809093,0.08067983124352468,1.0363859749457573,0.1803386733898055,-0.11626690224322418,0.12366352176478047,0.7079066667748827
335,-0.06765129070389937,-0.004219966340269529,0.19714248589961425,1.9023363008551861,0.11027804499946509,0.034478303302513495,0.08067742547881754,1.0912679700023449,0.17550629346988278,-0.11576961992204675,0.12434069528190962,0.7716759863101381
336,-0.06639500916984385,-0.004217219219601466,0.19857279778594722,1.9761801385983981,0.11041916258819585,0.03346849866189787,0.08068929664259532,1.1438705281980535,0.1707175396682097,-0.11588564827769873,0.1285668355277824,0.8688427897456568
337,-0.06117240055798357,-0.00422686273924359,0.1981274710971953,2.1890311992563465,0.11042616181385931,0.03638040175532981,0.0806363814993826,1.1767419119233893,0.16547493606368624,-0.11596443988809191,0.13319801505113818,0.9154090504238646
338,-0.05672360032233704,-0.004200357797009286,0.2026154960076782,2.4261878601812605,0.1103652642420548,0.038509138785687916,0.08084096377483128,1.2329740587254894,0.16320088052034182,-0.11557990398688922,0.13297374896220718,0.9512116084980918
339,-0.0513762244794649,-0.004229822554370847,0.2030066041472598,2.3929431885920973,0.11017834708845956,0.03817104699754295,0.08018437437008503,1.251849568733312,0.16032244921061464,-0.11954158590298343,0.13306448334223725,1.0192880231024806
340,-0.05086929232127059,-0.004525725943859467,0.20728536677123424,2.3172291824419924,0.10598156321199804,0.038217564264454953,0.08491982010136723,1.2217638912135695,0.15899042310282385,-0.12448387574057025,0.13307185127561127,1.033393271615592
341,-0.046526377694963136,-0.009018216314937273,0.20625387195593262,2.2033976318840875,0.10496760458376986,0.03820802115051981,0.08066762525474855,1.1397542779997945,0.15493264840672488,-0.12440682403049912,0.13292019561163038,1.0712645038194042
342,-0.04624354275063516,-0.007040753743574422,0.20902716973033778,2.1554261776033816,0.10184370356791231,0.038360367969152646,0.08537108280051607,1.0748651988592115,0.1545186011754647,-0.12448558066356326,0.13350283876499766,0.9841382509510306
343,-0.041810122687815726,-0.0034358087279555754,0.21125312202741994,2.0458087468690436,0.09947557524144719,0.0371332842151183,0.08474810840298208,0.9691032530026963,0.14957483532873192,-0.12445883448000021,0.1292478398963508,0.9222606885640902
344,-0.04231642033378874,-0.006738384322397876,0.21102976477743726,1.9378503632598296,0.09769801141387646,0.03340998573924431,0.08507675496289693,0.9015432275394764,0.14558464903334045,-0.12445675398777914,0.12877791561927768,0.8854007329096099
345,-0.0421870246781226,-0.009122652007258387,0.21070127215731654,1.8174522667590385,0.0944160903254368,0.0345444648648663,0.08444044852055356,0.829134826879902,0.14627691008052732,-0.12449597818258074,0.12932667468872971,0.8357800084336318
346,-0.04208305963100472,-0.0047485066985347565,0.2151883312805684,1.6667551170118078,0.08936932171334486,0.03094077703577633,0.08797048004855787,0.7658802427360037,0.14413617230438833,-0.12435713866522767,0.13791137355301214,0.7590268569916071
347,-0.042639948454383805,-0.0041927987366706596,0.21552130046425444,1.5430720457314187,0.08442315351401386,0.029807381405024185,0.08898006538260356,0.7257008374121879,0.1388848130485398,-0.12469555985781594,0.1385232574689843,0.7184649892847234
348,-0.03869850386837785,-0.004265400864414507,0.2196288656744137,1.34987765048693,0.07592519538571173,0.02600716993468438,0.09311714381696984,0.6053099726554712,0.134240239914213,-0.12011065790490844,0.1417301408216519,0.6421018192016263
349,-0.037903641101221755,-0.0035595964726909146,0.22064802179820373,1.2062051209316074,0.07573807710110597,0.021197912090588144,0.09340175447245155,0.5089169731749036,0.1291136580522616,-0.120321649959033,0.1441171422379609,0.5534263773398201
350,-0.03796676773828647,0.00044728853184959025,0.22421573643525605,1.0422544516557615,0.06988369065323849,0.020784520369648445,0.09330824883012837,0.45536187736767875,0.12874912476465555,-0.11955572055208182,0.14620878550936348,0.5018786760077628
351,-0.038016105525725104,-0.00012792967707435265,0.22303734217164947,0.9734902770757615,0.06765906862392995,0.016466623646035933,0.09445043834856416,0.373987592477098,0.12834876121987104,-0.11241336057233181,0.14588175891297891,0.41645246662609464
352,-0.03772334754337335,5.96452314603041e-05,0.2268955127412912,0.8609494238072503,0.06802422451519342,0.01746631361781712,0.09812436518137586,0.27408286104253904,0.12405116294412163,-0.10464244085747863,0.1459249792985364,0.3674463054553591
353,-0.039559171605639806,-0.00012311969028101845,0.2276621272735405,0.8055874512492012,0.06784438398209042,0.014756110446724861,0.09755082872939123,0.26007648326813954,0.12461023109577818,-0.10024174125458192,0.14592530108967122,0.2607340524474466
354,-0.04261071039584501,0.00036187316808071544,0.23190307902351778,0.697065013621537,0.06809008798964004,0.012235955583663187,0.09769666744162815,0.20023388963370473,0.12431783079651938,-0.0954499963890736,0.14590845887808926,0.24759762097893087
355,-0.04210506737953336,-0.003958287093336866,0.2320236968924708,0.6134733650531004,0.06350397757509571,0.013397001436709098,0.09763202067229207,0.17300327172235025,0.1249321334166107,-0.09031267801882373,0.14600565328162882,0.20199486529637092
356,-0.042209881710017556,-0.004163269300526668,0.2320827683706783,0.4758462417935896,0.06456839842860086,0.005320994269871145,0.09772815515774451,0.14177529968007058,0.12110104778652656,-0.09006839869063217,0.1455196125964335,0.15342793180661318
357,-0.04219242883429849,-0.004776611889346148,0.2321314938679709,0.4098080050814419,0.06713303991545616,-0.00435612600623564,0.0977136053519371,0.11151942846657115,0.12005971526664941,-0.08507691154861513,0.14848493985384895,0.13701265740216484
358,-0.04219403669555883,-0.008860208523486556,0.2316993769379425,0.3505256000421425,0.06343131098526328,-0.00890800071863109,0.10219626358341434,0.08730258322769281,0.12017136041057509,-0.0802192265785826,0.15060336301459953,0.08376981679843332
359,-0.04218729088608746,-0.008317694496059461,0.23435170661021718,0.2880766914081553,0.06179590044003041,-0.014925605200512471,0.10184844635528423,0.07360662148766324,0.12028587672660661,-0.07612136958549306,0.14983584212256024,0.06466953835665017
360,-0.04225100823501521,-0.008476167127188112,0.23668512507572043,0.2524200815291992,0.0564957194494918,-0.02297567030856808,0.10166740591742832,0.05773622914611182,0.11922947771698256,-0.06638706152138313,0.15442207111113518,0.05618349219067873
361,-0.041868975101578665,-0.008400187063777893,0.23595655104592275,0.21065084175280452,0.05179889232273015,-0.02971496186502304,0.10373186382084475,0.039227286315179244,0.11544273571272771,-0.05363842611064211,0.15465122399885617,0.041216741378226146
362,-0.04418792964587948,-0.008546506293014755,0.23993607637740222,0.19127517346234538,0.047068601898421665,-0.0370127465382228,0.10895279996151282,0.029538652449583917,0.11587886846351764,-0.047970265442007935,0.16002235082205085,0.017844345239956063
363,-0.04673631489296378,-0.0081905873750054,0.24474196923163152,0.1642534141577287,0.04236917464028767,-0.04139770613501746,0.11350504864197272,0.023584264476723342,0.11631713561992829,-0.04334442482951537,0.1631460097101832,0.0052247159194339044
364,-0.04648986322465132,-0.012675266032900381,0.245098144701855,0.13859474870019106,0.042530931821538755,-0.04614346212937025,0.11863187323726135,0.010368710790169428,0.11249772442766706,-0.03862810327392996,0.16475415449313519,-0.0018920398918029309
365,-0.04601467786570851,-0.012577767054987993,0.24937698160107316,0.1026470071309345,0.04245744354662742,-0.0509619870953909,0.11889957175590934,0.008382123084458746,0.11148087665359133,-0.03717793347963187,0.1695359912842058,-0.009372841471493623
366,-0.05061198571977094,-0.01275200747321902,0.2488173441193931,0.09264373201990976,0.04236857398995694,-0.05117355014456842,0.12413886517671313,0.008510793645781214,0.11158547404139595,-0.022360586320559872,0.17794994587094062,-0.016092911136593672
367,-0.046174412042186606,-0.012290190157435963,0.24897552636110445,0.06156028973400988,0.04290622952701234,-0.05684415961803248,0.13330597837607172,0.008519568126752784,0.11170719169377485,-0.014858918531664635,0.18390547758106643,-0.021066876147928355
368,-0.04670548174903031,-0.014832474729001817,0.2489465259866083,0.04658141865378825,0.03950829625653598,-0.06866810715517438,0.1358835034808823,0.008390917615863112,0.11062492950912677,-0.011862686016656358,0.18877771341714186,-0.02139173927907196
369,-0.04518616598217898,-0.016773752903253992,0.24891649705532734,0.03871134725591038,0.038030776368741796,-0.079435700661371,0.1374790005419357,0.008705136291525514,0.10683407724012565,0.003294614946979812,0.18910157765811994,-0.025987915897447433
370,-0.04165173595635423,-0.020041207756236284,0.24902727013269274,0.03450031521468718,0.03823467435843502,-0.08258254603404148,0.14330606001508556,0.004174160640095853,0.10741027651009367,0.013025609314125752,0.19320868822159892,-0.02544569106412966
371,-0.0427505026203635,-0.021230850949996605,0.24885093686207263,0.029668790461968002,0.03821852562348004,-0.09179506600751133,0.14421518142442258,0.004334858657522154,0.10727188585340297,0.01258512937445796,0.19535115788584884,-0.02713743955995827
372,-0.03917186775804989,-0.021092649475996525,0.2533672779360255,0.024734850298601934,0.038214933818862075,-0.09349139410588725,0.14794035107063458,0.004166907591688973,0.10730051748410238,0.021897805631104935,0.20465196716782486,-0.030406349376057566
373,-0.03789330667689061,-0.021113032525797566,0.25289113815126785,0.015675895291453284,0.03821679015094428,-0.09758262838015652,0.15282864467968407,0.004516474814735967,0.10729527010899016,0.026240702550761736,0.20596814801649793,-0.030257082394232748
374,-0.03780394332432682,-0.020909485975705737,0.25441190358979365,0.011445319962244944,0.03821834527244431,-0.10650435336340319,0.15767020685727817,0.0024796900077604773,0.10729594154045283,0.032783081831461496,0.2082686311238015,-0.027392987463240728
375,-0.04229554450617192,-0.02238610542001664,0.257823343624243,0.006539308338493122,0.03820793510425721,-0.10666279969289032,0.1617154441757318,-0.003131239338971265,0.107305322129471,0.04016435782594943,0.21798984015735048,-0.02162756039252093
376,-0.04193806717764375,-0.025837369901708537,0.25728054505906783,0.00201693136094193,0.03824969055286227,-0.11208689407131336,0.16102593879397784,-0.004413432557039082,0.1072263601814297,0.050173989616829444,0.21886380605325517,-0.025525231581735894
377,-0.04350401586673531,-0.024882972837771994,0.2574056922770195,-0.0033188182165686383,0.03811226112053443,-0.11665785001014513,0.1629843073432715,-0.004211373809299789,0.10767882561543972,0.059386702895213486,0.22367154048259671,-0.030181295070074655
378,-0.0452634398055114,-0.027984974824122273,0.2573783746102675,-0.0039717130130727425,0.03842710298871874,-0.1215080474973481,0.16870073033156305,-0.0042452886221512965,0.10495997228277495,0.06340785076051697,0.2277730183399405,-0.02996850044780153
379,-0.04166887525310897,-0.03326949306084335,0.25738859798504593,-0.008185988100101323,0.03389131486782911,-0.12614910152136008,0.16972814388510202,-0.004569388564142188,0.10312382955214762,0.0685760953167078,0.2271593216845212,-0.030092178475829918
380,-0.04230821270368136,-0.03383064797412541,0.2573900590971375,-0.00847615757777069,0.03392774906049386,-0.13125568412633978,0.17327003878463862,-0.009560368734913125,0.09965388323167022,0.06881879506912307,0.2290022492522075,-0.029905530706140934
381,-0.04216654475033692,-0.03395878808403706,0.25724872356603834,-0.013460543998233907,0.03492952681111064,-0.13164422478394877,0.1783102778203548,-0.014598672359509714,0.0985467222874004,0.07374059015680318,0.2348460939858929,-0.03146281082390226
382,-0.04221509863987108,-0.03814401970749271,0.2584302424654994,-0.01718116039483791,0.039047964183060065,-0.13156483619914763,0.17855442631147983,-0.017032640076586423,0.09865688782444253,0.07978980861849576,0.2357828056126459,-0.04341069917216687
383,-0.042191843017235504,-0.03908335308212133,0.26168457386873284,-0.016765972296673256,0.03583286654247727,-0.1324279804977764,0.18358745864656606,-0.01909020576234384,0.09421953133865767,0.08865896561757773,0.23982771360974603,-0.054753631304385146
384,-0.04183056676430304,-0.04230562271606704,0.2637316061164548,-0.017013111615382402,0.033667342403099536,-0.1363395472341394,0.18859467436031205,-0.02485406972699465,0.09376579619074336,0.08984430421255028,0.24029758812099344,-0.0600053259929584
385,-0.03751243634331921,-0.04438324428333326,0.2657043417782364,-0.016418030950627233,0.03404786551176048,-0.1357550164839357,0.1911143626418318,-0.02526610807879246,0.08804312270361343,0.09332802952830807,0.2450637291240762,-0.059980123425666707
386,-0.03845136108246072,-0.04686202673467999,0.2691248235301595,-0.020138957576308573,0.03390589453046525,-0.13593972597393839,0.19323264770066773,-0.02965202551759426,0.08542747380887863,0.09433077157259336,0.24980814265557655,-0.06084894794807703
387,-0.035805452734441634,-0.045980726853163206,0.26988641483766823,-0.021218730471417674,0.033895637164196094,-0.13576217884303085,0.19844201281038384,-0.029684137542483963,0.08632749731680332,0.09846338799319232,0.254650779888167,-0.06489691023438818
388,-0.033984758453924346,-0.05035446411307704,0.27418488148695525,-0.021092168364550832,0.029417856401843318,-0.13619537760156084,0.20313123301096225,-0.029552587995509198,0.08247007287861922,0.10314230500802239,0.2595890713741849,-0.06393008346958251
389,-0.030196891000025598,-0.05061211523241021,0.2741185986545382,-0.021091468426805038,0.029840387546757795,-0.13174666358707185,0.20791254258690497,-0.03107067881335013,0.08122932514473932,0.10292891644709375,0.2638926007153437,-0.06664852817232651
390,-0.033152128087516344,-0.05068887083082045,0.27508102912737076,-0.021112638471178276,0.029681899259104604,-0.13175751628451482,0.21268638225926806,-0.03430683062568087,0.08589370955238633,0.10304417331929557,0.2722109198286303,-0.07167930756548095
391,-0.03368491675394959,-0.05037749876392763,0.2786820187868337,-0.021015335610560806,0.029774034869696205,-0.1308774517133525,0.2174041844267936,-0.03432414518285488,0.08574840851191576,0.10291719399690957,0.2787505892090443,-0.07680035546312794
392,-0.038115613937996284,-0.052214617371651444,0.2799125258524284,-0.02149264298577814,0.02955847170731357,-0.1268787124084202,0.22250602505739675,-0.03086191664434822,0.08595337899751494,0.10334506219710045,0.27889395931835176,-0.07727763688123321
393,-0.038494349065864464,-0.05523632090684911,0.28520857250029247,-0.01864676075471332,0.030254839918218288,-0.12783066223929582,0.22519039140325683,-0.02956925957500668,0.08535747824459207,0.10022830978214856,0.28354831576685074,-0.07726474705655133
394,-0.04304779216547094,-0.05489367169224383,0.28979049599916196,-0.016591061973491868,0.025510675094220506,-0.12516405283699797,0.2266999548690562,-0.02973473560735582,0.08858941675026631,0.09484123605467648,0.28983488494263515,-0.07724712330387964
395,-0.039848791082150246,-0.05443238408769135,0.2945602070104097,-0.016925579388669034,0.02973295722460314,-0.12022865901505363,0.23541221577015156,-0.02972618132747542,0.0874315593116486,0.09438083989943824,0.30357626635097856,-0.07725626467257354
396,-0.04013294823620691,-0.05874052332825557,0.2992218017635651,-0.016869858870535718,0.0251144278834936,-0.11504074003420656,0.24161949210552572,-0.029734426235599142,0.08594556060383256,0.09411678025570305,0.31468083605007924,-0.07724707396335964
397,-0.0421150755011664,-0.0590639995149576,0.30388691106007387,-0.016868397687898013,0.025385053177453043,-0.11473978609691042,0.2458169612115282,-0.02964691738029879,0.0819366973001497,0.0897029439328637,0.3276629375100734,-0.07727703947444424
398,-0.04564891666204528,-0.06356187068077694,0.30362740455802123,-0.017017222939235053,0.027017796610289337,-0.11020477326471802,0.2597052463019355,-0.03011413975891096,0.08164912373395877,0.09048160143895079,0.3337352074452079,-0.0771683161697095
399,-0.046488573941266625,-0.06317609963023257,0.30461419326370637,-0.015836969487551547,0.030144425543509348,-0.11069117772037003,0.2635603080892533,-0.027305433165375315,0.08612752136118128,0.0885227697360538,0.33810134486209553,-0.07748979511839556
400,-0.04642844453238896,-0.06332606860310112,0.3100405711791899,-0.012197188055052093,0.02966837909688162,-0.10907168175154655,0.2714040235127241,-0.025214155557978343,0.08572889132477428,0.08273390809285056,0.34723488232949123,-0.0731844821483862
401,-0.046277120215114584,-0.06328220394951188,0.3126636691456185,-0.012800529122625815,0.02962469886901873,-0.10603305537981618,0.2830214675240903,-0.02542892116897035,0.08586896324437468,0.08167734324343236,0.36204808392799315,-0.06857550375074709
402,-0.04740396619940277,-0.06329312344641887,0.31169328194685214,-0.01251266344702209,0.029985060608908733,-0.10413666639316203,0.28667574322256545,-0.025651580786187008,0.0858226872638018,0.07806641831400707,0.37918225780009146,-0.06818538728822937
403,-0.05135106197226339,-0.06329077568508784,0.3156500273603233,-0.013069776593850264,0.02545450025880022,-0.09899122600812547,0.29180821560393727,-0.02111207080335622,0.08586491912299409,0.07300551462206975,0.3856685085946715,-0.06257557670677973
404,-0.048742585957874264,-0.06329115989961788,0.31636963443839283,-0.008850481961323783,0.025125947632539065,-0.0939655148304603,0.29616114537361315,-0.02146440239314464,0.08575290453618759,0.07309498226921558,0.3985738623719955,-0.059763687149196644
405,-0.04334696825875744,-0.06329117288690146,0.32061990492753717,-0.008431826376780471,0.020654356375949215,-0.0933477804178494,0.3051457964923736,-0.020114830787236887,0.08600622622900021,0.07210704905150063,0.41357548561585045,-0.060159373464120196
406,-0.04192069304635505,-0.06329151268541727,0.3249678003574911,-0.008421565303441198,0.02206314483208091,-0.0932847722252249,0.31470678604331803,-0.016538083976828544,0.08138427988948754,0.06811824789787416,0.42682429050734494,-0.06006906212019257
407,-0.042478617122878745,-0.0632873834695976,0.32568864667050357,-0.008447416545453862,0.016865952007256442,-0.08815824444528332,0.3244459048194901,-0.0170928518485339,0.07647309956042621,0.06924179962848395,0.43996172127642247,-0.060095890103750896
408,-0.037976643671723584,-0.06331404018917382,0.32925751974711104,-0.008430307562273873,0.012082569634704842,-0.08488022984220232,0.3325606940199651,-0.01696269064079651,0.07260834580748891,0.06579885082908699,0.4541489140110318,-0.06007634669858105
409,-0.03794256863351796,-0.06317817237599464,0.33099932635388124,-0.008469022171995135,0.012826895110172622,-0.083246608400868,0.3390291551800495,-0.016988984182266322,0.07306040499535418,0.0645963840762704,0.47725948334972346,-0.05999861345796696
410,-0.038809787208020044,-0.0637720338786756,0.3334129365933987,-0.008315298226201915,0.012793759194668845,-0.08026203877253951,0.34637772357867974,-0.016984701288775366,0.07293830433147479,0.060483402141903814,0.48342781778979094,-0.061017228946209
411,-0.042656484949788735,-0.0601424666562177,0.3358728875002582,-0.008885066676530103,0.012751765553069732,-0.08076345118184002,0.3535506850536914,-0.016985121315580137,0.07296385198797435,0.06010099523368133,0.5010896680668739,-0.0635404606856181
412,-0.04207607077638304,-0.05925817217002988,0.34142662283020914,-0.004808965466033087,0.01725923060216494,-0.08066597899581622,0.3637209712536519,-0.016985166193901776,0.07296795441139527,0.055515043578076934,0.5150517442536933,-0.05940703394212289
413,-0.04221935953222829,-0.05507574825828862,0.34164824569558705,-0.004210554919239445,0.016876998517501903,-0.0806804232694759,0.3693166636548968,-0.01698512705683057,0.07294710925947478,0.05590852632551427,0.5393383380547068,-0.0606765264599819
414,-0.042192929370156354,-0.05489111922752596,0.3460916350967023,-0.004376008163431768,0.017000049127097832,-0.08067889152297755,0.3694947067665833,-0.01698514121262735,0.07293029926666336,0.055784625757798065,0.5511328182740121,-0.05687635206856011
415,-0.04218420779069327,-0.05478644335537778,0.34649142205220157,-0.008782435093602832,0.017060568268035956,-0.08068988861345903,0.3747810090175254,-0.016985137155278336,0.07352746012890315,0.05567938507263414,0.5641499314883522,-0.05567412285163992
416,-0.04220649481216041,-0.055128654894855314,0.35067961229609346,-0.008319939599003673,0.01665245740176477,-0.08060765666157495,0.3858289436430421,-0.0169851383938347,0.07769519349413279,0.05628794971315717,0.5789531957757615,-0.05577429732065962
417,-0.04230583788377008,-0.05316780779644269,0.35008001476112993,-0.00847141427041733,0.0198976274272423,-0.08105294245004155,0.3988109178159837,-0.01698513723596027,0.07713022378383351,0.05231220157634559,0.588641014187559,-0.05554058764461561
418,-0.040975706396136895,-0.05022839969748507,0.3502448469208893,-0.008433129761558938,0.025181338217625516,-0.0783636682212679,0.408133723263145,-0.016985139845023513,0.07728182615847165,0.05166375511211066,0.6060512017391778,-0.05111638537664858
419,-0.03165371875039048,-0.050717559713783264,0.3501949912326157,-0.008431620302055068,0.025478516785170702,-0.076114070008425,0.4152898096314153,-0.016985137424888278,0.07724960162679143,0.0471987061809215,0.6309392363196282,-0.051647860396108226
420,-0.029226850247990512,-0.05061651734881842,0.35024269299845895,-0.00846749055166245,0.025388451283911737,-0.0765122476159347,0.41635400395706734,-0.01698510534150174,0.07724706205599612,0.0472905453241157,0.6402127777718146,-0.05135848080752734
421,-0.030020059998472612,-0.05063899493734557,0.35013961724996095,-0.008371366680842035,0.02637157214474864,-0.07637192176881712,0.41590028286115205,-0.01698541209879276,0.07726639474944505,0.047177489125035756,0.6560724947279912,-0.05197785390981561
422,-0.026574573557773158,-0.05063669354106592,0.35019703411694225,-0.008425612813894945,0.030169761491786524,-0.07634180417547871,0.42043671143185773,-0.016983566673952163,0.0772881849169551,0.047221791975397276,0.6673592386777516,-0.04829634155692426
423,-0.02501557028608727,-0.05051186851897325,0.34583742513021476,-0.003984103169809674,0.02967158728508393,-0.07187428700806209,0.4208545177020014,-0.016992592932360422,0.0766761654261873,0.04719895203317474,0.67619814982552,-0.047151622039667725
424,-0.0255700128794025,-0.051605252722992254,0.34518374855066,-0.0041093528207573225,0.029494458597428976,-0.07230173447330196,0.4248328144870597,-0.016954509979179928,0.07243766851370119,0.04724636304959496,0.6906428245576027,-0.04711202042455874
425,-0.021122333145611922,-0.05521472178059147,0.34152080058686024,-0.005607524728024184,0.03058680309405923,-0.07215596709471565,0.4261392799609593,-0.017092899729855067,0.07349462734914378,0.04709338834607873,0.6960517846950812,-0.05169931115269832
426,-0.02558150251498902,-0.05516408704987684,0.340328295112533,-0.008880898320426368,0.022024420180878957,-0.07218634555879336,0.42928145650802296,-0.016690787804319276,0.07042235472882105,0.04747383249180902,0.7098349623880732,-0.051398569321927996
427,-0.026206740026274006,-0.052158798103541376,0.33447757977927484,-0.008339256305528647,0.02124409812652946,-0.07221791020541081,0.42893024120966206,-0.021108890471032732,0.06881903755756563,0.0428881376609548,0.7137135834803259,-0.05153546161350706
428,-0.030102206039163436,-0.05039839410045709,0.33347785756135634,-0.008460153587322477,0.016769472823446055,-0.0720812651692463,0.42841040831750354,-0.020932647949661168,0.06515991328985599,0.04252148327760781,0.7182687860089269,-0.05149389916080301
429,-0.029095590249245223,-0.05065882615121124,0.3299853867197963,-0.008429303015722223,0.016459473391789155,-0.0724202226551093,0.4329773771712677,-0.016436114513965802,0.06426571558626044,0.03818390557011655,0.7264662197763144,-0.051501773583253675
430,-0.03192273257315923,-0.0506348511195729,0.3250426660838527,-0.008447942605568793,0.010804637009432547,-0.06789261707422228,0.4287768933768511,-0.018462419165843957,0.06421735283295774,0.038662300227862136,0.7299937559407154,-0.05151028087790946
431,-0.03729654654770918,-0.05072020228050851,0.3200856772695185,-0.008499543347803427,0.008176806036188106,-0.06801684576034128,0.42395068328322466,-0.021248963875473384,0.05973594978430112,0.03903507308655529,0.7323203216753151,-0.05147824191574191
432,-0.03811590095202517,-0.04981776986099773,0.30487570409602954,-0.00774148778067497,0.008594036556525837,-0.06792760576160749,0.42016670318563254,-0.02362575497590658,0.060283481365752935,0.03574600715898013,0.7426043924160116,-0.0515313461975923
433,-0.037979188433515804,-0.04598539661358099,0.2864561487202214,-0.00405397370060939,0.008362462681347303,-0.06785470640467381,0.4195139568540284,-0.025776893323323,0.05964045477232695,0.03412070701145973,0.7289719374548322,-0.051754068843514495
434,-0.04245635355719154,-0.04641375273269067,0.27580026345783865,-0.002621474855555828,0.008798143087622366,-0.068370711861463,0.41182499778980824,-0.025431232657388475,0.06262563729286207,0.03437307008381805,0.7297067883065437,-0.056172505403000776
435,-0.04204355598036262,-0.04687255164504078,0.27331056784277863,0.0005434247865832454,0.004286265436451422,-0.06514712898148363,0.4040184410449559,-0.02548164468568339,0.06425348841346071,0.034357654261694945,0.7213443686405087,-0.05567163664597051
436,-0.04247353143322462,-0.043168470398443105,0.2589307328141067,-0.0005295582865319828,0.004124764415894766,-0.06347683235271967,0.4022844880621641,-0.025479405204859317,0.06783838994388887,0.033809190256425335,0.7079287168309873,-0.055826256003536565
437,-0.040550938189743535,-0.04237570181223102,0.24580773950852536,0.0034365089922463047,0.005942204979465493,-0.0637157068226132,0.3760150803175669,-0.025465827866571138,0.06889789002362025,0.029625199350982526,0.7002958302738898,-0.055786714732238736
438,-0.035123828130311126,-0.038120107325517946,0.24096928103366008,0.004358662341396267,0.013332749398877495,-0.06369351093865774,0.3694138229485499,-0.025551575422563276,0.06426078618313336,0.030068497890848884,0.7012675243486901,-0.05579524399622671
439,-0.0331421952031045,-0.03801894290051094,0.2362592128292725,0.004276008585725421,0.014531450800484248,-0.06380943808341252,0.35961764681116376,-0.025101842909969547,0.06430085846755731,0.030450886490763662,0.6819920980738516,-0.05579421682058983
440,-0.03747640735027735,-0.038005472052285695,0.22978018456740265,0.00871861850088002,0.017364332958520697,-0.06271137014089417,0.3510151251101974,-0.02781296659525372,0.06554748273760962,0.02713391233180553,0.6617548492932623,-0.055793470246270335
441,-0.03800179236229568,-0.0376183509298885,0.20753034001882212,0.00833320811119876,0.017021463930615585,-0.05933223118145791,0.34721718386556744,-0.030115039422019,0.06910769913951072,0.025453622653531176,0.6379568154908628,-0.055789558139258476
442,-0.03798752729916623,-0.04015196637489447,0.1994751719899428,0.008452996697164393,0.016697174612774566,-0.05744892722737886,0.3382814009998444,-0.029403835862397816,0.06867408938712351,0.025971574985972197,0.6254607967236773,-0.055840588604101356
443,-0.03796890513110991,-0.04018825369528667,0.19115291681620633,0.008513247687951645,0.021160375628751477,-0.05483398488152492,0.3230685050485432,-0.03348853586639091,0.06827358499048619,0.021359691728092402,0.6101619514197348,-0.05550701546660272
444,-0.037971184061559256,-0.03761035820446806,0.17228724186956496,0.008107685428611748,0.021108740604814883,-0.05526042355674617,0.3093012684983749,-0.03825567241195977,0.07219504248336926,0.021546352563883073,0.5854265725794252,-0.05761515944067545
445,-0.038002203938267,-0.03800898147011266,0.160123013501422,0.01123657733521172,0.021874426891065054,-0.055213439430323225,0.29117326827579804,-0.038638287530539904,0.07317492330128134,0.021428153950457943,0.5694284568760138,-0.06088656634570508
446,-0.03785468747879946,-0.03801850429156044,0.15802024040634324,0.016507647322408597,0.02721214823764152,-0.05519545490085892,0.2718802815166709,-0.043164318783822334,0.0685686367940171,0.02146736268264172,0.5522943370855421,-0.05699330615834288
447,-0.038420217972286404,-0.03809071799081562,0.13561570371338394,0.01689575467006108,0.030450858043002297,-0.054830505425636916,0.2627787744391275,-0.04074238305416391,0.06822426667546694,0.021459502180406785,0.5120674014568934,-0.05525270209469511
448,-0.03443590693556885,-0.042515096167701605,0.12633831646215943,0.016887575567046568,0.0270821991825478,-0.05061005097662067,0.24930407930849086,-0.03771466843060289,0.06296646699909705,0.021450874994181666,0.4938710928466891,-0.06004590406679279
449,-0.03369810654364336,-0.04207368051162695,0.12037624957947878,0.016876167254808453,0.025110702669623827,-0.05074733996211763,0.22399843878950612,-0.038756634572198356,0.05792349221666878,0.02148591602361575,0.4790514598207634,-0.05531197436534856
450,-0.03375884420345031,-0.0422527626011003,0.10531333649862105,0.016856672360336784,0.025849120477257338,-0.052968806146278385,0.2062375667153713,-0.034803472596739375,0.05546826698081689,0.021411727684921715,0.4561849067732932,-0.05124865561938596
451,-0.03358185355396254,-0.04206964464655337,0.09246655446529854,0.016988946319744593,0.021295388328846622,-0.05556551947078409,0.1895126979771561,-0.033893583388293465,0.055888485556387535,0.021305305102032428,0.43026728586282714,-0.0516011262543475
452,-0.03507137927828357,-0.04264905041022235,0.08706948122680926,0.016399600116362142,0.020977770971300547,-0.0551321357561154,0.1777144485190418,-0.03397408518293025,0.05568995756218171,0.016820492305405232,0.3922369051057599,-0.051393350935368946
453,-0.03679806668472774,-0.03881354205907925,0.07367618914818312,0.019976226958053497,0.01677895310981081,-0.05521706600876454,0.1636953895302665,-0.033565522398427,0.055936289868919936,0.017287312750263392,0.3831693433241541,-0.05187592902717216
454,-0.03323337716275563,-0.03788079189183042,0.05610698718119206,0.020916343114269705,0.015715472015682866,-0.05519689840163999,0.14455406633155707,-0.029247619628566476,0.05133843339340538,0.017135176155535302,0.3570652901458599,-0.04866861907276562
455,-0.03386551975609811,-0.03797316552514289,0.0550757721472322,0.025024775538531947,0.01256730015545074,-0.05511181296534237,0.1382680268021143,-0.03018901852041946,0.05159887092453339,0.01717250665779581,0.3290065173147806,-0.043689369437356185
456,-0.033735901355837844,-0.037980065085344024,0.046175517774578304,0.02526519914100856,0.010708075658500535,-0.05605990319825919,0.11175675494464776,-0.02759186617984432,0.051475383689632635,0.01717520030288774,0.3100056192001053,-0.03873462181962814
457,-0.033757638083673554,-0.03797140787024997,0.041290979433897756,0.02587164251152517,0.005129779273874936,-0.05957810720862388,0.10885807592568494,-0.02516745555359454,0.05148205186219171,0.017139931668206963,0.28138996622111456,-0.03867063245269045
458,-0.03375529288979478,-0.03798178580096431,0.031146938344065983,0.029751776147240016,0.003909071362418086,-0.06133613234504107,0.09522125760777778,-0.025427927473980858,0.051623274557703054,0.01721107977536168,0.25694038716406425,-0.03856514990741185
459,-0.03375515037412385,-0.037944389532451654,0.0233534439624267,0.03072468786210232,0.008291372270976781,-0.06396520412383937,0.08660763834648703,-0.025761432274721174,0.05105287807799534,0.01737418992321237,0.23743239404760078,-0.03887945498709932
460,-0.03375532367953548,-0.03809657981587639,0.019035367034991445,0.03590202505698719,0.012886628864219849,-0.06405271768964708,0.07845275827385666,-0.02128514005006605,0.05518570435243283,0.02164608695136531,0.22144963376451338,-0.0370082472377608
461,-0.033755267794838624,-0.0375537178936338,0.014216145076651776,0.041040927470030575,0.012659480662950645,-0.059993361553002195,0.07368865456156842,-0.02129356508395862,0.05582582860999296,0.02259540838902623,0.1938006087040616,-0.031868632254860925
462,-0.03375523670947412,-0.04171548001989917,0.00952817757714634,0.042071197582063694,0.012786793292265263,-0.059419897536749415,0.055645350425551354,-0.021199070378625087,0.05574698868689662,0.026130645713197568,0.186053627415546,-0.02668164115693741
463,-0.03375544237747985,-0.04221261771978987,0.004774694172486837,0.04567749090935705,0.0126161600670138,-0.05943327588862277,0.05046169746104493,-0.021264290634276237,0.05649010291562553,0.026095795895820343,0.1742121983289332,-0.02564584854013691
464,-0.033754682889367324,-0.04220960111036697,9.146345437125022e-05,0.05058474534683908,0.013229796641612173,-0.05945539590588994,0.041308955168862675,-0.021113380083836918,0.06055315176694717,0.022655143829270436,0.15934479073939856,-0.025737151178509037
465,-0.033756885419681686,-0.042186719244880884,-0.004307374553812167,0.05590828032110801,0.009481097832470583,-0.05944571873267725,0.03556172860396009,-0.021713267027640443,0.05991418668177766,0.021291491393836907,0.14466066544323353,-0.025585191067162318
466,-0.03375356207094213,-0.04219652875538467,-0.004964485352001748,0.06913346015304346,0.008699940330553779,-0.05944804283063335,0.027702467337281274,-0.01798584780561944,0.06032626705367126,0.02147957810458064,0.1258044785718926,-0.02027261796180463
467,-0.033736810431891466,-0.04219292960226301,-0.0086069300468016,0.07329277535286122,0.004357611530951999,-0.05945022720641949,0.020594514298490546,-0.017097079177215438,0.05782401285011473,0.021527909749913726,0.11153389942529764,-0.017379652691250295
468,-0.033938362612542246,-0.04219655761220548,-0.010201644611924096,0.07569054169991082,0.00406022066491649,-0.05943939209124431,0.013712527245590574,-0.01297152450138747,0.04824231400898912,0.020702940027323036,0.09872576366013072,-0.013757693043166519
469,-0.032496885040885916,-0.04218563678347682,-0.01306682455723033,0.08027557655739122,-0.0003954039182079997,-0.05947258909063731,0.009244789435371001,-0.008194822747974253,0.04714724731323503,0.016935901652017755,0.08955256880246278,-0.005618770273429141
470,-0.02911700298868601,-0.042218583342837554,-0.012575003778359599,0.08832926544510386,0.00010858277074688244,-0.05941455902253704,0.004489403469873061,-0.0032736554057064132,0.047187086666547036,0.015772419487039162,0.07976528407240753,-0.001368828324827176
471,-0.0295260089657735,-0.04215679885283157,-0.012677885482236605,0.08775041366388626,7.159600002237301e-05,-0.059221383904367875,-7.434837410537069e-05,0.0004354580075826427,0.04722216337336984,0.009910193425631618,0.07020820755663884,0.0035686287534522554
472,-0.029933431397016912,-0.04200714321535151,-0.012645144215616596,0.10040287410597373,-0.0004424839735409529,-0.05488438647139794,-0.0006602110845287208,-0.0005142402406181982,0.04721057837001596,0.008381525013944223,0.06041488317966304,0.008377825473620567
473,-0.026070720023399156,-0.037626975692585364,-0.012620986136291614,0.110179497785341,0.0030864574278756836,-0.055027093075746145,-0.004404835322619774,0.0025790111095373033,0.047189863532815256,0.008637656918416859,0.05562607422954111,0.013191916867664754
474,-0.025115760468549353,-0.03809270058173917,-0.013217862957496386,0.12446888977676943,0.004431536449529478,-0.057011629706353664,-0.006065452988498234,0.004091021488765029,0.04730081462683301,0.008553231222124348,0.049174783255815334,0.01821609023528426
