,I,aVR,V1,V4,II,aVL,V2,V5,III,aVF,V3,V6
0,-0.017316017316017316,0.06060606060606061,-0.04329004329004329,0.15151515151515152,0.09090909090909091,-0.0021645021645021645,0.01948051948051948,0.010822510822510822,0.05627705627705628,0.06926406926406926,0.05627705627705628,-0.010822510822510822
1,-0.0173192143066684,0.06443144559484659,-0.03937905940357483,0.15156988252581063,0.0909061023961841,-0.0005798187725260431,0.021845131045156254,0.008594973105071598,0.05627696407845413,0.06926406926407917,0.06073898366300631,-0.008577331614936715
2,-0.017300130084307946,0.06025030357581957,-0.04405590605595065,0.1512425632645207,0.0909239623844433,-0.004539235007797198,0.02094638143393527,0.00867041247534415,0.056277515852494096,0.06926406926401991,0.060552551792805616,-0.008758312768903065
3,-0.017661534481035655,0.060343431823058395,-0.04105211924796374,0.1532625012621339,0.09082910341072299,-0.005508403445544162,0.026091999294118023,0.008725970975687645,0.05627459544365631,0.06926406926433379,0.06062270676463991,-0.008254764313610394
4,-0.030339704493177452,0.06302735300444505,-0.04106423593768298,0.15593301751499442,0.09127241764788908,-0.011560142485968788,0.039521646878672316,0.008319090315336848,0.05628812396225049,0.06926406926287655,0.060595943601433964,-0.011130065519972402
5,-0.04583638178258038,0.06519665848450959,-0.043450468259219936,0.15699290546662234,0.08824510165385892,-0.012868750147884307,0.05135987489149452,0.009945363472616112,0.05623544174255077,0.06926406926857695,0.06063124964515146,-0.012932018426647908
6,-0.05054756539296556,0.06498261311707478,-0.043814312928551,0.1453613545816995,0.08319588176995242,-0.01625656010957934,0.06728205665688287,-0.0020810470950322815,0.056397930325792864,0.06926406925080256,0.06053577937582671,-0.016310795730428984
7,-0.06017143123287177,0.0648591507249551,-0.03495654373154865,0.134841187612646,0.07804848880270152,-0.02153401229434336,0.07338400707139313,-0.008484464635428733,0.05612585623495215,0.06926406928215598,0.060685535037903506,-0.021443286294781466
8,-0.06068182038662847,0.06953359738897805,-0.024676389579899833,0.12071193033687416,0.0777636754777513,-0.021625734754597874,0.07824522025920336,-0.013099769962280888,0.06611427665586353,0.06926406939413914,0.06145018751534806,-0.0264435635902157
9,-0.06532462145294048,0.06892285051575314,-0.01170562403592003,0.12162658175862548,0.07320107802379204,-0.02146548489382417,0.08263158473431578,-0.013720670234967088,0.07972901180913985,0.06926406784149294,0.0754817359401288,-0.03001141741119292
10,-0.0647983010721461,0.07087866713322127,-0.003802454496824275,0.12008608416093426,0.07372343393264856,-0.0230607459545518,0.08151867467270915,-0.01754721264555151,0.08240933402884619,0.06926407803286268,0.07933046996091837,-0.034471918098918135
11,-0.06497233540387083,0.07400708431863741,0.0051423834103561635,0.11428791724940393,0.0735587898043404,-0.026416233154156865,0.0863261766435989,-0.018980996657772847,0.08221135688470761,0.06926402672935501,0.08409701632544078,-0.044636545939051205
12,-0.06492648636678534,0.07350994052525324,0.006976443802578403,0.11275390981566166,0.07360067099819673,-0.025879888152283134,0.09118578158559844,-0.024347205323239182,0.08225942128588787,0.06926424198322993,0.09213787626654782,-0.04300339762994932
13,-0.06493671998714058,0.07360583921300344,0.008991160585797508,0.1092112327258688,0.07359168936097939,-0.025990101507969224,0.09406528379598704,-0.02956862934986922,0.08224969224965613,0.06926349820841814,0.09913025597402,-0.043338992177841595
14,-0.06493482388246725,0.07359214904684794,0.008468447555939524,0.10812092374841233,0.07359324922494993,-0.02597229618151536,0.09538286780115354,-0.030375526148095276,0.08225122100355173,0.0692653029401846,0.09960269772362489,-0.04328477711972857
15,-0.06493507820066174,0.07359282289658303,0.013157798811389235,0.1082225198956774,0.07359307221519451,-0.025973918691951037,0.09523538924712954,-0.03030751456560683,0.0822510958831938,0.06926570983745357,0.09957185803558545,-0.04328971791945814
16,-0.06493506476214363,0.0735932104967126,0.012702662617224152,0.10819550644123856,0.07359310845317728,-0.025974156195390827,0.09512270258539866,-0.03029787263407117,0.08225106533916235,0.06922470158194223,0.09956672734558822,-0.04329040863942406
17,-0.06493512677265827,0.07359306059932864,0.01438266313699881,0.10849081379612655,0.07359272585394291,-0.025973932890997295,0.09621712559814656,-0.03030478426448323,0.0822511218139823,0.06954530228762645,0.09954671124214161,-0.04328998252200135
18,-0.06493467114767265,0.07359292839611362,0.017753083562664633,0.10646360870519207,0.07359504341237129,-0.025974292027395502,0.1000326546097664,-0.03030316234156406,0.08225089864113914,0.06742879228894638,0.09967586935861056,-0.043289683527540826
19,-0.06493697838084538,0.07359370295396023,0.01721999235547032,0.10349393432708566,0.07358403241625723,-0.02597292001300423,0.09945483682023852,-0.030300340419607486,0.0822518614945401,0.06454369292924592,0.09911004634652713,-0.04329176076759021
20,-0.06492720727395977,0.07359103141749791,0.017340138507649188,0.10397401564660654,0.07362805932974852,-0.025978017254998334,0.09958837349187732,-0.030313163108146045,0.08224833400947026,0.06500877283984403,0.10287839824583432,-0.04328380102094516
21,-0.0649619149142722,0.07359708151883253,0.017296700487664886,0.10388459294888036,0.07348469894146922,-0.025963242630668168,0.09956858825599453,-0.030275594186564305,0.08225807760794189,0.06492497215773699,0.10407556097918286,-0.04330691441149733
22,-0.06486959006728223,0.07360289373733292,0.017292944087830664,0.10389696191927913,0.07378477699228424,-0.025981634754421386,0.09955829949872476,-0.030322391516877104,0.08224975305256427,0.06493540569442258,0.10393142756801757,-0.04327813871995599
23,-0.06493120656562512,0.07342863260896688,0.0178965250053016,0.0982465311634077,0.06915639461146722,-0.026145711220195832,0.09953617398538836,-0.03073048415257287,0.08211350242878226,0.0649354015887165,0.10856349706914209,-0.043030965777116965
24,-0.07261564307044144,0.07485294431916073,0.022076238418530604,0.07988693722840448,0.06886282606927104,-0.03256535481951554,0.1072748965432954,-0.03447212907840313,0.08346041200402922,0.06493499662586008,0.10784671062101377,-0.045807463644122554
25,-0.10245834859920142,0.0784841688765569,0.021630372756974343,0.07807441573104554,0.06317008031198719,-0.03976945066866334,0.1399829002311278,-0.03857771316928958,0.08593109441257797,0.06493461092718888,0.10999902310968769,-0.05935551448472237
26,-0.09871889846175633,0.0773574604875803,0.02120717469302464,0.0766618253007937,0.06028266502256189,-0.038763454653885615,0.15907225101073974,-0.05309127477203021,0.09355897325243615,0.06493738351535402,0.11307382582581724,-0.060180082873020485
27,-0.09980316339289683,0.08128831197687221,0.026500770932319333,0.06749483789126236,0.060678317902682334,-0.039002009641045145,0.1649725252444779,-0.05922416579121616,0.10050283800521068,0.06492597209770928,0.11347216078651878,-0.0637848009274601
28,-0.09940094238637916,0.08235380417485914,0.04560924257378265,0.06485946956025024,0.06059274046097096,-0.03895260234847727,0.1722510534903591,-0.0640218275510933,0.09942645425674705,0.06496336216435765,0.13553405331059165,-0.06433000367473093
29,-0.09996460247341699,0.08225423756563013,0.05619771333199205,0.06118866339229991,0.06060780974566306,-0.038965100071885216,0.17689795621573942,-0.06889805271690815,0.09957639231117,0.06488532432061597,0.1428341087096982,-0.0731552078036016
30,-0.09550267341910036,0.08224506097419133,0.07550790929175515,0.0562135616346516,0.06060602773522496,-0.038973893236209874,0.18172873360414477,-0.07370877741019252,0.09957024022784461,0.06475301537984593,0.14797944175740058,-0.0736904285933779
31,-0.09526901051767882,0.08225334199971517,0.08273594860666866,0.056340470821283906,0.060606095178251385,-0.03878448576884038,0.19124207728361378,-0.07351493081180951,0.09956514611539699,0.060284533282853846,0.15813366745823065,-0.07834578330575252
32,-0.09521269679160917,0.08225045849457506,0.0818515807143605,0.05625440310021681,0.06060520351551862,-0.040269859021669886,0.19595860543010135,-0.07361922766226092,0.09956934906574005,0.06042030778230568,0.16685164707890465,-0.07778042259495994
33,-0.09525053326841176,0.08225122478135123,0.08421871727100805,0.05628322293298991,0.060611093700296666,-0.043740306923711995,0.19961119865850938,-0.07358607064433792,0.09955863936161238,0.06256000498473285,0.1687567770379694,-0.07795922067040076
34,-0.09521637498831535,0.08225105409778308,0.08995045015680879,0.05627565287625388,0.060582736945523866,-0.04319122146032761,0.1986880978980738,-0.07359522092356142,0.09960079510615978,0.06531114936391634,0.1712609969346426,-0.07791391088531276
35,-0.09532241256716525,0.08225109022960624,0.09102843867319048,0.05627732027725514,0.06069709830061596,-0.043307556968529386,0.2017111563559271,-0.07359058644657042,0.09945681276623222,0.06486783584722716,0.17694462025596552,-0.07792357748825421
36,-0.09345884622175159,0.08225108024092039,0.09090265394852887,0.05627702010341697,0.06032007763538593,-0.04328828081706759,0.20692211046167874,-0.07359847536708966,0.0997973277710594,0.06494324295085209,0.17752105540216642,-0.0779217994500059
37,-0.07948300856571874,0.08225100231742166,0.09090751496990074,0.056277057522785855,0.064483063311514,-0.043290110888426755,0.21171628259140066,-0.07359434991614562,0.09514726694016169,0.06493515803322954,0.17745430775147486,-0.07792205186710555
38,-0.0779114844260599,0.08225176012108878,0.09089511169595435,0.056277057879811125,0.06935674428363452,-0.04328124582554617,0.21654059986677882,-0.07346899664370475,0.09528919422494721,0.06493447237401725,0.17807863814394304,-0.07792442807777082
39,-0.07306601099614302,0.08224725859331704,0.09100164027844154,0.05627705247150149,0.06919427908725483,-0.04335933206968888,0.21651367735181287,-0.07465077909546927,0.09548886214795722,0.0649365640359556,0.18328697682086947,-0.07790385421132999
40,-0.0689413022228449,0.08226848558507077,0.09046773410327702,0.05627707524990917,0.06928806313366591,-0.042911127085189474,0.21555026643766367,-0.07838636029316258,0.09339567497532937,0.06492772822148853,0.18868061312462453,-0.07802165925891875
41,-0.06967651819413274,0.08218536791492376,0.09382144551665046,0.05627696844287262,0.06925753025258691,-0.04569816719382081,0.2223428070464768,-0.07781296892834308,0.09039867660097292,0.0649677251238493,0.19008849734564898,-0.07747608191677971
42,-0.06717425160229244,0.0824412275091944,0.09540657423605647,0.05627740058639401,0.06926602952863277,-0.04791620982364863,0.22979520731058356,-0.07794328946286978,0.0914222105912183,0.06481278805059244,0.19635428026629195,-0.08097132946620239
43,-0.06457979326564313,0.0820274641213909,0.0952737939098379,0.0562759734319789,0.06926196605639962,-0.04757519137906365,0.23521393759506012,-0.07791928714701406,0.08706807229629275,0.06528890563095015,0.2073121791773988,-0.08250955699224445
44,-0.06499848057702352,0.09134616617149152,0.0954241313590137,0.05627905418357328,0.06926896948546624,-0.0476216854511636,0.24229567861159199,-0.0779218240869267,0.08657185195913555,0.06074343965659912,0.20782190582392512,-0.08212385369681575
45,-0.06492726993342869,0.09069137375068717,0.09979721326063365,0.05628311282802714,0.06926112549805832,-0.047620147461897425,0.24237554924306967,-0.07791826539120274,0.08656104690623748,0.06066173251675162,0.21291802213507366,-0.0867838604527446
46,-0.0649350213442294,0.09097436703406693,0.10054213225015401,0.056186217965937105,0.06918601146502193,-0.0476181966951753,0.2469180301343093,-0.07796249033120853,0.08658690580497329,0.06057741564923455,0.21772306729289748,-0.08647523346156398
47,-0.06493529523232178,0.09090069055439709,0.1059959023682917,0.056881198114072044,0.07001489961728961,-0.047621040964783375,0.24754779595112467,-0.07767640209074869,0.08658483146518353,0.060615009458600405,0.22255829864871554,-0.08661287375665104
48,-0.06493617660766615,0.09088040385738524,0.11113727059104953,0.05239016584193132,0.07526059920065958,-0.04761025014297918,0.25163267866527617,-0.07962756392842316,0.08654818695213308,0.0606038480114204,0.22807417717346476,-0.08657183361578184
49,-0.06492808577694119,0.09100859238830317,0.11297791630865385,0.04688424828157061,0.08046119376391378,-0.0476543068496295,0.25072934325097723,-0.0854196714621524,0.08670401637403946,0.06060636395089989,0.22918462952864324,-0.08658181823811105
50,-0.06496711149465832,0.09073718937581222,0.11200474535097175,0.047692757589864396,0.08252775581413886,-0.04750393125482253,0.25317494036821553,-0.08673817464702564,0.0862092485437952,0.06060654417796428,0.2332708744752025,-0.0865798274942652
51,-0.06481089633157977,0.0954226762745198,0.12131580367906807,0.04776294248038939,0.08217449767193757,-0.04785859236664429,0.2623401367324767,-0.08656478026320132,0.09073605906139696,0.06060489575684186,0.2337476083162734,-0.0865800452903392
52,-0.06532414678593584,0.09473188913707829,0.12158984843419124,0.04758827085355592,0.08231922549684459,-0.04321777669512132,0.2680837942400684,-0.0865806533515672,0.09087774702737125,0.06060404705775968,0.23881666231240425,-0.0865799660085676
53,-0.06086572273581313,0.08807216972069826,0.12605429760663767,0.05678781725567285,0.08240041078114374,-0.04294080265435182,0.2729255795410323,-0.08654316459726416,0.09072718737759218,0.06064713234026349,0.24230470268414403,-0.08658259212974885
54,-0.060638039586172116,0.0794126715798673,0.12540046454988882,0.056520736607634216,0.08660169311173421,-0.03727883185858474,0.2778148670954239,-0.08684692917659337,0.09239423714222986,0.060318721427442865,0.24526660067907696,-0.08656254213566257
55,-0.060580584705469676,0.07773381803390833,0.12557317487356695,0.06459571390111744,0.08893943102033244,-0.03430565232809397,0.282735924520653,-0.0848165641023386,0.09525444804946413,0.06247391045570102,0.254013904825658,-0.08667132121840362
56,-0.06061764737175765,0.07795414301693196,0.12553470862315674,0.0692108321801629,0.09589843963675299,-0.03470588750377969,0.2875938346677498,-0.08058236855420287,0.09792743848587704,0.06532178429164517,0.2577747143073587,-0.08618676338257036
57,-0.06058893708184114,0.07791869370806118,0.12554319226709154,0.0745980625525228,0.09708673876643276,-0.03461830562808379,0.29269264987874194,-0.06845357710580247,0.09980729611993647,0.06486300418508482,0.2667393946488362,-0.08798881433582478
58,-0.06067034344059933,0.07792184062399164,0.12554058220484107,0.08437485636424406,0.10317246760862857,-0.03463379065330649,0.296873756181967,-0.060871369466978825,0.09954101210646954,0.0649447356790864,0.27270663908260556,-0.07229912810525851
59,-0.058890371566554,0.07792231322180729,0.12551802927803085,0.09914150331838006,0.10375460329808128,-0.03463203322100794,0.3064564286337168,-0.056421911434197065,0.09956498242496467,0.0649348040640347,0.27315469923894514,-0.056354793955681534
60,-0.04462750074799294,0.0779220964787376,0.12573642876438593,0.09987717764086163,0.10808233370965852,-0.03463339753787233,0.3073401233670404,-0.04147034950683255,0.09958037636639702,0.06493418927022716,0.28253321385946467,-0.04993243478406445
61,-0.043508140505590404,0.0779215422217697,0.12443965312636508,0.10908249875679688,0.11275610533291103,-0.03461966893695266,0.3122159030374366,-0.020440945833051744,0.09948500617495526,0.0649396713942041,0.2889399235489932,-0.027787450629731494
62,-0.029629561758434637,0.07792446588896464,0.13258474073504933,0.10779064068124818,0.11222041773632667,-0.03470276418172025,0.3253202037209404,-0.009187450331721107,0.09999402074475677,0.06490962466478394,0.2942929514477338,-0.022517534778181574
63,-0.030588226531597627,0.07791368483509224,0.13956739375293664,0.10956337776563939,0.11428542382526044,-0.034305410487886316,0.34535490949476694,0.003912811286986395,0.09689671843584538,0.065052330007106,0.30105435301439193,-0.0030064097330430102
64,-0.03052561567224555,0.07794284844258953,0.13801927467130357,0.11800950327327366,0.11643309091666265,-0.037138995871895966,0.348096442793952,0.027417292822198524,0.09541230150495246,0.06448133117681039,0.32078405266690607,0.029394596682035583
65,-0.028254237348246544,0.07792444602224734,0.1427381402156571,0.12450747933050893,0.12252922514870963,-0.0427420589461643,0.35342540941128375,0.06400106783382672,0.09146480116553181,0.06850184750608156,0.33661525439245005,0.05517034156056484
66,-0.0256081229352097,0.07744670306939716,0.14295583274332782,0.12966443399824848,0.12597539268799512,-0.043331551731803246,0.3585646345027615,0.07286927722981293,0.09089546324124638,0.06936601913910222,0.34664112921076023,0.0899421062117534
67,-0.026043412090011386,0.07315307222682305,0.14906279241448053,0.1299280636781346,0.1254990822881652,-0.043298392964909546,0.3626945056552742,0.10617819168055963,0.09088883998816794,0.06947534977842933,0.3559901377570132,0.0973444366110832
68,-0.02595527472266697,0.07371719452303602,0.1581269734690523,0.13926283391452243,0.1255415219539761,-0.043285692853081065,0.37681068330762213,0.1472772001864444,0.0909178407146588,0.07396170692540559,0.3606977968700472,0.14696499692083562
69,-0.025971996061992818,0.0735642964545627,0.16037637482560374,0.13750024427068094,0.12546246104038974,-0.04328572737937134,0.37802962163276066,0.18097446345761037,0.09090651238209828,0.07347172389381713,0.3648193445384082,0.15244444107900593
70,-0.026216621924447552,0.0735985335124523,0.16024983468634935,0.14377991658585026,0.1262333604168516,-0.043319698260337616,0.39195085602877794,0.18991913548604658,0.09090971963398102,0.07362461729847317,0.37554395658362516,0.18851243146043925
71,-0.02391114234019965,0.07359237810838343,0.15978161679721373,0.1527981376468386,0.13359132112441863,-0.04316518721666945,0.39585077443656236,0.21570889250100853,0.09090893816388076,0.07358616186843445,0.3850347315438041,0.21632733288274633
72,-0.016665279831311858,0.07359304990425414,0.16423991150358666,0.150974982247793,0.14181607117528872,-0.04371605323139438,0.399415947820133,0.22664824468342795,0.09090919460459627,0.07359444374184843,0.38780504683928696,0.2227551171652696
73,-0.01562651501241006,0.07359212301930411,0.16447753545004976,0.15481150295249937,0.14267936730989275,-0.03936273992910994,0.41515398858751057,0.24473763702612186,0.0909089578111788,0.07359255960292378,0.4111544432054225,0.24448461738243873
74,-0.009894634138277209,0.073601960468551,0.16436255027374314,0.1601708864286941,0.14626139761706175,-0.038970251533624545,0.42394632754271505,0.25544165590512824,0.0909084025331456,0.07359288501160226,0.42046944894840693,0.2510594589862623
75,-0.005681225442584775,0.07354151959689544,0.16575016729065442,0.1610085004223069,0.1514515439689826,-0.038938871684705965,0.42843582115490686,0.25558014236432225,0.09091738758761639,0.07360244303697089,0.42536970010048086,0.25172219610210556
76,0.003774855010744534,0.07383208949615291,0.16950639494474223,0.15828337612589582,0.151517807917047,-0.03896953779169062,0.4336569043490204,0.26228625836097585,0.09085663319967976,0.07352203693600579,0.4305513501030931,0.25498433503361473
77,0.008981483491653966,0.07267268339617672,0.16780019948506433,0.12670884053462966,0.15108895382897228,-0.03895864797125372,0.44293423621807887,0.27006753959696733,0.09116704252070695,0.07397697006130446,0.43421446536320846,0.260883627287909
78,0.01847207581237124,0.08084928147288883,0.1755610081060779,0.11218929857675472,0.15457937463447036,-0.038961609576045976,0.4583815628952397,0.2782998967552713,0.08883631157124565,0.07115166750931927,0.4481284711445223,0.2681096164966821
79,0.022830837014192102,0.08235381367866698,0.1776947708192291,0.08348173296553882,0.1606081181153756,-0.038960879714564974,0.4743460429945927,0.280170543606697,0.08037339149049536,0.06897528955892067,0.46920142113343216,0.2780755715700018
80,0.028045194323291837,0.082345370785898,0.17749532356926082,0.034196038590283084,0.162833965231519,-0.038961200970752105,0.4872054593172916,0.29600723282236335,0.0698196711173717,0.06929952116005858,0.4803369312419213,0.28024654526551523
81,0.032207465466005517,0.08143853603291308,0.17748612920272744,-0.006665471996642541,0.1647206294142641,-0.03896087640151561,0.4971406836416153,0.3105128644772594,0.06929091709976565,0.06926920660547443,0.48591949724374944,0.3023237248040233
82,0.04119450071600557,0.07746132353204459,0.17753401641007463,-0.04080431104460836,0.1645381760386454,-0.03895928079551646,0.5056114154226184,0.3237517414296448,0.06922782035039407,0.06934323502400078,0.5059223607562033,0.290333793607872
83,0.043556555889995484,0.07803837301508738,0.18947550532538343,-0.11262922788831653,0.16459082723358082,-0.038978501390018926,0.5156171146526848,0.15433445378171623,0.0692787537859814,0.06841381732645538,0.5180717028223495,0.21836809618013928
84,0.04327785060137082,0.07789599784937185,0.20073348697298826,-0.15560955093951997,0.16915958463224526,-0.038856483941023506,0.5339895123277388,-0.0008727102922088197,0.06925284176913558,0.0644931508593111,0.530616485090509,0.14472508424869882
85,0.04330358266604717,0.07793210862978188,0.19838743135012502,-0.22599448436241848,0.16874453064640055,-0.03945921537076451,0.5387307110174387,-0.06421124131142207,0.06929798273516352,0.06493494573749709,0.5412460143525176,0.07589297003127735
86,0.043086942890266405,0.07791008246811623,0.20302799825600798,-0.2619185771473566,0.16868443788048001,-0.03585557731969992,0.5490782747706081,-0.10798717840205652,0.06914404521276478,0.06537608009397189,0.5626707770105881,0.04608047851849764
87,0.04472302321817469,0.07789057324913165,0.20343941502132032,-0.29111174075147483,0.16961057377921818,-0.03522759287476763,0.5609792974656199,-0.12850927674908816,0.06958770774895341,0.061448276286797575,0.5750998059020848,0.031858312908395144
88,0.04802300159209673,0.07842269453356279,0.20845823512262215,-0.3191822331447349,0.16302791885502332,-0.02658035881872966,0.5765191101652574,-0.1383219539444179,0.06499894271492312,0.0605238449382748,0.5845624238387038,-0.0023928179652247406
89,0.04768131063389297,0.07411123457555675,0.21242382667584425,-0.32915991332464173,0.15604611077713193,-0.026031443325018506,0.5874879017215461,-0.14743362721337794,0.06500299010350677,0.060589340284139724,0.5925867319699529,-0.008681242521858545
90,0.047100326712563055,0.06317702109682204,0.21203684621495353,-0.329689483791582,0.15592209172682753,-0.025967995360825107,0.596939085270584,-0.1468191302864701,0.06490496063360647,0.060772253263950846,0.6193374636302114,-0.014061455318254331
91,0.04889659273174396,0.06789226152822542,0.21212024249510306,-0.3393104255184703,0.1512106821835396,-0.0256775860591658,0.6111243140524666,-0.1484928960542544,0.06494364480517958,0.05937742594436243,0.6279052265166836,-0.017295376729009743
92,0.025868373910820353,0.06956342007039161,0.2122025611674019,-0.34258864736583095,0.144566214504764,-0.02797861854134094,0.6161765579977836,-0.1519164510488792,0.06493472862270988,0.05581390037038703,0.6475420899947556,-0.01934079210295028
93,0.021831662170041663,0.06898592432814689,0.21186717121768556,-0.3538712468927514,0.1316807564478766,-0.03022003915067029,0.6266696558937094,-0.15156827012058693,0.06492834760280522,0.05641254743254562,0.657933184841453,-0.021154614266852695
94,0.02084178147928907,0.07364939410631113,0.2161275883806948,-0.3580850431876449,0.12806339875076544,-0.03349357982457227,0.6361888251530081,-0.15099745883551927,0.06495698191440849,0.056140207844742246,0.6605457906976316,-0.0279486561028674
95,0.015215822575957817,0.0733671016421839,0.22078700008298052,-0.3761794330915073,0.12241162322371806,-0.03474732386479739,0.646429049121795,-0.15829616872971544,0.06489871618355458,0.05658471307164061,0.6840729470472042,-0.03359814632524459
96,0.012679562657462968,0.07477624769478197,0.22228896687523755,-0.3923253508275827,0.12104710717151329,-0.03463731377730311,0.6530121115761771,-0.17308065354960056,0.06477208499459018,0.05197708869216494,0.6892472481603956,-0.0558889903450353
97,0.01304141786708631,0.07837354763545824,0.2304820358482098,-0.4207242782803379,0.12122559686984144,-0.03503718017017638,0.6570789259339025,-0.19096751635386916,0.059688370794458684,0.05202097994139956,0.7063590060818514,-0.09769891019533433
98,0.013004128393834153,0.07781724353588156,0.2287646583303681,-0.42400898916185226,0.12120765682091122,-0.039391078300849945,0.6712812150750409,-0.24982961267841772,0.0545870330363945,0.0519173821072787,0.724202988432482,-0.11651397166746913
99,0.012937658867808217,0.07795020677616936,0.23232490826827776,-0.4445244563704549,0.12135924795851692,-0.03883543728730913,0.6811181400261505,-0.28238332435466207,0.05158913631740627,0.051957044090735274,0.7396221531924116,-0.14754895124656603
100,0.01283906647883034,0.0778956560391375,0.23397668334548596,-0.5182171816928196,0.1200289134877379,-0.03899120905462049,0.6891851484034961,-0.3318688757081292,0.05202568200167301,0.051945734623209956,0.7473414235766803,-0.21111394970959257
101,0.00827404198304235,0.07793020687964608,0.2337314263204875,-0.5746342040927391,0.11675180183238697,-0.03895498942441889,0.6874009985675169,-0.37130079127076204,0.05193464304059562,0.05194912032158343,0.75689366353263,-0.2688177505342023
102,0.008987174225356569,0.07837663647745144,0.23372750562719236,-0.5791345889692553,0.11478531370361418,-0.038961974759623826,0.6929572845099213,-0.4277071635285967,0.051949242697101175,0.051946061136098266,0.7571734304650927,-0.3273728591228378
103,0.007189835671466817,0.08241912643212686,0.234412504062272,-0.557800096941289,0.1099066917362101,-0.03896096769411545,0.7001030706345781,-0.5097349468646994,0.051947827735901654,0.05195104051651935,0.7804146546851366,-0.3569916059920635
104,0.001273389400284502,0.08389343389435423,0.23856804090017297,-0.5326151614822718,0.10106879134560479,-0.038961020063757595,0.7053646514346066,-0.5953789808452026,0.05195783110131722,0.051963822846135974,0.7867282694111495,-0.42287413181412337
105,0.00029735644148555897,0.08663112316894055,0.23789506920898412,-0.5219605855781588,0.09527460261161118,-0.03896106796121543,0.7053161010014725,-0.5714968893240235,0.051874944181838266,0.05175869760611239,0.8041672836098481,-0.4260734758891899
106,-0.0038756510019198236,0.08932800664317997,0.23845560279573208,-0.48760162095293524,0.09497754196588191,-0.038960916948431956,0.7192332643761421,-0.5324294253121832,0.052338559352303776,0.053319218196483116,0.8064192390442555,-0.4117012770565446
107,-0.004202993705405352,0.09178456324768262,0.23521893727606663,-0.44907838497085584,0.0906288198087077,-0.03896162421052908,0.7184242740583886,-0.5218898553377145,0.04945708133581385,0.056722079061664404,0.8160097787609836,-0.4056573600539138
108,-0.013801345480362678,0.08248139250663004,0.229689130050506,-0.4387510980728993,0.09005365460564589,-0.038958633390565586,0.7177071111994664,-0.5119697764927973,0.04734261863682278,0.05618158328622153,0.8175438732773082,-0.3927392252519649
109,-0.016891453857225038,0.08236678861395835,0.22941980907884343,-0.4147493275332087,0.08297476701199491,-0.03896914679902876,0.7108090626909681,-0.49744606927095847,0.047644998816866346,0.05629168688641688,0.830089144463836,-0.37444183726044633
110,-0.021448038448507276,0.08219455293723248,0.2243855237882987,-0.4031569039287296,0.06990258144818585,-0.03894253754962652,0.697111044073313,-0.4772373237705633,0.04762839055932721,0.05628000618639515,0.8401091601706022,-0.36860508137182113
111,-0.032689433592867786,0.08226834272855489,0.21957313908651768,-0.3872343105042414,0.05764402882552254,-0.038946452302832286,0.6870085238132917,-0.47146232955062506,0.047808040985616494,0.056280819135767025,0.8454611204439195,-0.35916674185952013
112,-0.042000167072577206,0.0822468399981091,0.21460829834561912,-0.35356534964525815,0.05290058384503305,-0.039486936837590206,0.6678176785572025,-0.4397912099942377,0.04574398365403568,0.056143168352112,0.8562692963108636,-0.35447516922931155
113,-0.055188991837586805,0.08225194682427435,0.2096920567312086,-0.3398728257045673,0.03878078845003234,-0.043735083030338184,0.666556539636611,-0.429639906766116,0.038380785133931276,0.05737513426094211,0.8618899655954265,-0.3487116931118127
114,-0.056136119515444075,0.08225094727886788,0.20477162339235389,-0.313625681096715,0.034176326929287223,-0.04316625364468426,0.6526977205815168,-0.4044040810781707,0.036940990898728265,0.06117215079757932,0.8454546522585605,-0.33652463864544496
115,-0.06062961228005577,0.08225109086634894,0.1998259923620912,-0.27756937577495916,0.028798299240680465,-0.04331866915138186,0.6447841540623359,-0.401042063227586,0.034260281068513546,0.060040694129215845,0.8400855034097753,-0.32263883989693126
116,-0.06052036034956184,0.08225107357774379,0.19492774405477958,-0.22783667353657583,0.025626600211215853,-0.04328455944281394,0.6306638618893678,-0.36476347163350414,0.034691432508854605,0.0637697337230144,0.828453288117229,-0.3004871621864936
117,-0.060639880347005126,0.08225122089086159,0.19022759634614006,-0.20960557637671168,0.026055676450176594,-0.043290821103791614,0.6135900297630967,-0.33710005631936096,0.03462671902830861,0.06508318292684984,0.8180011567299456,-0.2838899365466346
118,-0.06059632038664832,0.08225018588902512,0.19102521903095607,-0.17447022143768792,0.02595740241313382,-0.04329000727129602,0.5971395166445216,-0.3041037108067262,0.03463020839366116,0.06492808783308845,0.8031514504862901,-0.26435168354868993
119,-0.06060840465501037,0.08225550616487112,0.187284207054224,-0.1383818217279936,0.02597826872502446,-0.04329002056426269,0.5943426692286474,-0.26959372413809624,0.034645465810115926,0.06492903588949894,0.7878591571408463,-0.26344363591588443
120,-0.060605583302313484,0.08223298611808941,0.1808880333101989,-0.11371223231414021,0.025971385258452967,-0.0432900514874777,0.584932614799446,-0.23615133827596138,0.03454824040899954,0.06495286735248121,0.7774877675045723,-0.24032326270609172
121,-0.06060613800572302,0.08231081514558368,0.18234921525744502,-0.0819073947916376,0.025955804317513185,-0.04329005592224744,0.5700031449135462,-0.20555784859924425,0.03504999154231261,0.06484154819382022,0.7664693617308977,-0.21427912923582165
122,-0.060606052575848675,0.08212577925696199,0.1784728650050948,-0.05388926977233847,0.026171656843213625,-0.04328996876008092,0.5518198055857746,-0.18579585111020352,0.03193202962513669,0.06537392265456948,0.7441910929213741,-0.1907971190076094
123,-0.06060605629427399,0.08203469298985425,0.1734131502269543,-0.024392885324508177,0.024573114301035114,-0.043290341429126016,0.5409789099936292,-0.16873240275671328,0.030062427251175555,0.062047878183448944,0.7335962858776903,-0.18116518879177712
124,-0.060606110282357226,0.07293509934214583,0.16846926050707633,0.0023317240865615534,0.021231394905067136,-0.04328909410141065,0.5296964822674736,-0.14597630025727817,0.030331287077407447,0.060402242571839605,0.7145190986485099,-0.1495479896282078
125,-0.06060573451247092,0.07360087390874685,0.16393363310416745,0.012683291028352618,0.021615907101303906,-0.043291856361012876,0.5230201951849094,-0.1278039666117503,0.03030372551684162,0.06062530215981049,0.7083436968569586,-0.138601555510885
126,-0.060607724566409074,0.0751489338786815,0.1560479708284802,0.050764436641805036,0.022051913762300975,-0.04329485826740516,0.48923822361473057,-0.09435918962300059,0.030301742275776183,0.060608425522255364,0.6838370884596617,-0.1295156092770832
127,-0.060598917008708536,0.08048234502510543,0.1425824304733728,0.06761677496207377,0.017712223597496007,-0.04321297239984996,0.4608406151911561,-0.08372163118256576,0.030301255448815446,0.06060422174276225,0.6603246298472714,-0.11704574990791114
128,-0.0606319068660565,0.08571145518418431,0.1325446051829905,0.1131306040641348,0.01732401632311115,-0.04394976322929732,0.4457889886512867,-0.06830116628283558,0.030315724475698955,0.060606691981648725,0.6409489382124893,-0.09112961672272966
129,-0.060534455877593256,0.0867283941350322,0.1273524632214397,0.12012371049504983,0.017330659725521783,-0.0519392624572696,0.43467141121784053,-0.05150424639613682,0.030246133017906143,0.060605892598321,0.6168348605727407,-0.09254850007184137
130,-0.060677567805509446,0.086594104316496,0.1100983806461223,0.13576516865422494,0.017045946976614944,-0.05693020173288629,0.4109029732373958,-0.030758179364293547,0.030512881303553258,0.06060609801863758,0.5914399541926811,-0.08132646861686746
131,-0.05583158258263372,0.0916962807427753,0.09504260418649677,0.13869382252839405,0.019126477459048764,-0.05615806116311397,0.39800242903877814,-0.019028742901190016,0.027238770200207256,0.060606053729073295,0.5763330626725627,-0.06589489058951327
132,-0.050823116138586276,0.09556331103157138,0.0952839809454961,0.16610613546307618,0.021592742085341232,-0.056292194693197954,0.37903842459593307,0.0026850009724734367,0.017484978629944425,0.060606061634890344,0.5710489288797576,-0.06511639272129406
133,-0.047258260110943855,0.09514683051774168,0.08664964807108527,0.18174541049808904,0.024650136202473145,-0.0562769575082299,0.34820613709999415,0.008655438509233166,0.017423937497739128,0.06060606057806769,0.5528675329772937,-0.06061786828397106
134,-0.04765028614797786,0.09525918203211435,0.07680749110763668,0.18181523334437175,0.02605429096890113,-0.056276379350858045,0.3119546824365255,0.008640384345985432,0.017269090921576958,0.06060605731728332,0.5192498211828719,-0.060686985280510496
135,-0.047857671533181295,0.0952340566143128,0.07683352750742636,0.1818222825644872,0.026113794590011608,-0.056277333131861305,0.29494163630911113,0.00866530873613872,0.017306532353166957,0.06060608707099338,0.4980126092184784,-0.06057295543866357
136,-0.046749498440164614,0.09523876557865713,0.063842746648241,0.18181626111273427,0.021522521106718494,-0.056276976301463395,0.28551368077325345,0.008655388672421811,0.01743013595535933,0.06060591329623103,0.46030862980070664,-0.06061566786866699
137,-0.055556513016884995,0.09523798925726941,0.05638784840461941,0.18182085724528585,0.021001173464333237,-0.05627707533409422,0.2697758258948826,0.00866095227048219,0.016851961276114477,0.0606067293683459,0.4304288493618421,-0.06060357121611986
138,-0.05628995692178186,0.09523619369966525,0.05627473067756082,0.18180815889843047,0.016819309084837832,-0.05627705247620029,0.23356609707815756,0.008648605221878387,0.020857990131104353,0.06060351850127514,0.4252635412192527,-0.06060731780667243
139,-0.060945390602284225,0.09525497913616425,0.056763017885077004,0.18185462480397346,0.01744452084415286,-0.05627705690242554,0.22854799507171547,0.008685689891240205,0.02171178143664744,0.06061361897996498,0.40172895324113506,-0.06060359882863999
140,-0.06047328972535205,0.09514093986333734,0.05203756585939428,0.18171645395092414,0.0172879781168644,-0.056277056164640196,0.19943843575206252,0.008618235551650692,0.021654941002539674,0.06059519495230849,0.3739509287861939,-0.060609505537289166
141,-0.060642391072230364,0.09568653575807909,0.03692230549507293,0.18191817239133473,0.017321018094701483,-0.0562770558054319,0.18299847980378164,0.008402269030583281,0.02163727244982944,0.060536764379008234,0.3578322986377856,-0.06062800149360612
142,-0.060605515609384576,0.09222565152811761,0.040212926403276644,0.17740615895510722,0.01731540810839174,-0.0562770614859314,0.17504271683771538,0.004083239889948955,0.021652166377424953,0.06143249065162066,0.34576715220333487,-0.0603577978011666
143,-0.06057474712020268,0.0907342070038939,0.0329685624759302,0.1760865015940974,0.017316011262915366,-0.05627702390163939,0.1557936410580438,0.003377363669993069,0.02162032462754679,0.06506657922834315,0.32263142845175596,-0.06233512664570416
144,-0.060708284260192036,0.09092074346999304,0.026567050280864337,0.1663618760398466,0.0173160489127526,-0.05627721420552413,0.15577041202464956,-0.0025587132896427575,0.021746124387132106,0.06693172214829053,0.29475016739850124,-0.06329231024937677
145,-0.0604223126248441,0.09091290615651786,0.02176345004272751,0.1643178732579338,0.017316002761618404,-0.05627641162685689,0.14128113157845637,-0.004580897867007989,0.021296849348982416,0.06951776070517685,0.2646748140503834,-0.06016039578946546
146,-0.06506892111823984,0.09090704179478049,0.01644198741338987,0.16450897626134847,0.017316032692887864,-0.05627920377654638,0.12164257066335803,-0.004285633950677064,0.025353096173856716,0.06961546358607355,0.2339650161012163,-0.06067520422156317
147,-0.06483949049815538,0.09090973427278956,0.007960117888477917,0.16460315007844362,0.017315963072826963,-0.05627231426974516,0.10640234636964048,-0.004333780894048572,0.03034276940134886,0.06529629295171102,0.21897897132879304,-0.06061523693757759
148,-0.06496766106161429,0.09090892984910134,-0.0024469733905233835,0.16428735372782813,0.017316220740906507,-0.05627179295766708,0.08232774997082831,-0.004329251211867936,0.034749024978741806,0.06495345015945905,0.20705776129391612,-0.06062523718543148
149,-0.06492682962879766,0.09090912440074786,-0.013271256295573854,0.16893744956525422,0.017315404918024767,-0.05642001257652153,0.0710005208054434,-0.004328686267744148,0.035609874085820586,0.06491110839774977,0.19388453969043945,-0.060055803931187535
150,-0.06493468217750757,0.09090908544653031,-0.02161355778415549,0.16873728479011696,0.01731698202136143,-0.055129275763176784,0.0572561904313202,-0.004329094889043541,0.03945145310523636,0.06494386297184146,0.15649601851087916,-0.05582342008920491
151,-0.06494328382765288,0.09090909141735173,-0.02629094887213318,0.168869784464854,0.017320817193231162,-0.05148744532091321,0.042862546438392435,-0.0043291180041339404,0.03884647380804142,0.06493264185862502,0.14343140620606545,-0.056428745541535257
152,-0.06491141135304584,0.09090909099938663,-0.029912806514651544,0.16879143672859054,0.017257266953983136,-0.052053855212209676,0.036686692597671794,-0.004328372903071813,0.03898329604798341,0.06493562068120474,0.13664500250766934,-0.05612543265938154
153,-0.0649578487693509,0.09090909052696268,-0.03489702830106559,0.16896593271299232,0.01769011262464406,-0.05192740565319142,0.024251935496085494,-0.004331328377672056,0.038957580417766285,0.06493495955851811,0.11792695216949263,-0.05673123854106677
154,-0.0652455397877972,0.09090909313085986,-0.04007465248476258,0.16835659609167267,0.015016470951834253,-0.05195252915021684,0.015519240481927358,-0.004322640388927528,0.03896148637097919,0.06493507960950484,0.0987306820983617,-0.052505331255973696
155,-0.06966667341424858,0.09090907980431691,-0.04330596198151417,0.17272942072223268,0.014810461610085318,-0.05194657383291417,0.006758902702127702,-0.004334144603648886,0.0389642855695329,0.06493506433126627,0.08696619047603579,-0.05192715915325062
156,-0.06913934293272743,0.0909091371429132,-0.04538612247464025,0.1731289388936315,0.02101146414085207,-0.05192335648775103,-0.008995310326006761,-0.004421306039383079,0.0389298328878499,0.06493506380686204,0.06314021342070525,-0.05193058326111374
157,-0.0692955959278351,0.09090893434309809,-0.047532009004618805,0.177795355002011,0.02157094746110967,-0.05217356814149309,-0.01346102982935529,-0.0034207612249896255,0.03914703982337407,0.06493507114302309,0.05308678986053503,-0.05195603187180261
158,-0.06925759039065124,0.09090944479819041,-0.05096408198542701,0.1771337112083253,0.025967839978066908,-0.050399076296165336,-0.012985948742039233,0.0004414368298741343,0.038077962812282325,0.06493502995866986,0.05292884213268862,-0.05194564691966388
159,-0.06926419105686968,0.09090943198618384,-0.05209375355100669,0.17911407523866632,0.03550018971216916,-0.04719144172727789,-0.01888540012519565,3.812207963012625e-06,0.04475122934691656,0.06493522841255148,0.0423064389648447,-0.05194865348910252
160,-0.06926643627207642,0.09089877397632574,-0.052033254269489786,0.18223267988864808,0.03974590253034108,-0.047706901622564364,-0.03155263823193841,-0.0004411303101456058,0.04792738719940259,0.06493442335737686,0.030754631789397448,-0.05194788470636256
161,-0.06926518150369133,0.09098441918084868,-0.05705044248284111,0.18173492304384584,0.046733218195111656,-0.04760487566606353,-0.029605317015999263,0.0035458252103985006,0.05107328863552901,0.06493707870066281,0.025634950001975656,-0.051948216077527934
162,-0.06920259993400953,0.09051108522557222,-0.06215555308562716,0.1818276847833587,0.05445437002550797,-0.04762031752771298,-0.032645640866037634,0.004394374968031852,0.06538984668026104,0.06493140408845971,0.016963636205050488,-0.05194778735948263
163,-0.06973383347271869,0.09346717107224724,-0.06526818469187799,0.18182398270841021,0.06110918156262486,-0.04761923746308631,-0.03643510345424636,0.004335751938152804,0.06984983248189977,0.06492322852797588,0.01530736551932884,-0.051947201870394595
164,-0.0661347215105117,0.09550615575604095,-0.06499523787665995,0.18184357559260508,0.0758570408738833,-0.04761891280533567,-0.050204973845912985,0.004368175585855926,0.07528592119137954,0.06510754156243732,0.005974486300925157,-0.05196043539882047
165,-0.05751584729656288,0.09519793007896771,-0.0644482113552009,0.18146596663113265,0.08192165734028871,-0.047619093155146355,-0.051599788682395134,0.004026018740193674,0.07826773405669607,0.06364564192979844,0.0023861633561745948,-0.05186622994353837
166,-0.03338369919033965,0.09523988257305482,-0.06895247466514058,0.18442659116752153,0.09154897096951418,-0.047619035558922794,-0.06543554775454093,0.006294203553401879,0.0778252382017602,0.06015431548972168,-0.006501325036950798,-0.05236102465089446
167,0.00346180422219763,0.09535352494229765,-0.06925268710953308,0.1913465285269871,0.10056400785162617,-0.04761905050650382,-0.06449158046547317,0.009030268327172386,0.07801042944511341,0.06070577350069214,-0.012414355589254595,-0.04929231013673978
168,0.028339440705478777,0.09421317772668397,-0.078513057189035,0.19041142581153958,0.10607860151725214,-0.047619046316005484,-0.06601209284553813,0.008591011419070848,0.07773598752645931,0.060588103938583715,-0.017316838644425344,-0.04736894356381772
169,0.06190809280957247,0.09044440554466852,-0.07774846104450577,0.1900459150370275,0.11814637326517195,-0.0476190497109295,-0.07176451551599244,0.008666200084962696,0.07790618554834078,0.060608282949658004,-0.01807964213417749,-0.04765000072931124
170,0.0816611528146001,0.09101833264596075,-0.07761295671742101,0.1944386394833968,0.13397678649788067,-0.04761904779518047,-0.07340770069559248,0.008658033376267034,0.06934921797847433,0.06060606967322229,-0.027669546739641164,-0.04761917389595099
171,0.12405577818728891,0.09088792544313824,-0.08032041679425565,0.1948069569732701,0.1422988912644019,-0.04761900313777306,-0.076832439657368,0.00865991337355283,0.06354138899510536,0.060605952156943525,-0.03219786547945365,-0.04761754024495475
172,0.19071237754765152,0.09091213069720958,-0.08253962025623168,0.1993282603510926,0.1459412575803548,-0.04761939960241809,-0.07804964702564916,0.008639892709016309,0.0263158317754326,0.06060610379086769,-0.035109624476911724,-0.04761962435818093
173,0.2311561156245854,0.09090893957509513,-0.082233180061454,0.20002087205895963,0.16010112138546706,-0.047617110079573456,-0.07792093901092359,0.008758572782464693,0.0028942204908249526,0.06060604845966531,-0.03411571868343148,-0.047619014668667595
174,0.2505540371566909,0.09090900562312652,-0.08222685322976694,0.20403595501500743,0.16479375365102014,-0.047627770678624344,-0.07794561825408566,0.008205058842489234,-0.05760444257827617,0.060606062598709,-0.038325954975102314,-0.04761846206057913
175,0.271521469420914,0.09090913168325053,-0.08193607645523869,0.2030203442785669,0.17097895795745746,-0.04758619001031139,-0.07768378475875762,0.011719038325548343,-0.10804078157359712,0.06060606351975105,-0.03902037474295465,-0.04762139839801726
176,0.3234383568923026,0.09090907899932246,-0.077511028341834,0.2060366506697028,0.1796603921964301,-0.04771514971577989,-0.07953435771156712,0.013159733244707561,-0.13735518525463172,0.06060605049080857,-0.03928059688371816,-0.047612149857604626
177,0.3477556911779366,0.09090909165277922,-0.078049087818818,0.21169050742984308,0.18385291276290747,-0.04749244818358402,-0.08267295557071595,0.0129696176617836,-0.17815549158853897,0.06060607403873639,-0.04369742336738136,-0.04762813583373524
178,0.3607687258414055,0.09090909924249302,-0.0778827882997245,0.21204000646473092,0.18950597432059155,-0.05214793458513454,-0.08216511221410029,0.012931637252898106,-0.2515928478637663,0.060606164624076024,-0.04311793773672269,-0.04768939677067329
179,0.36622371275497234,0.09090906349840615,-0.0779617213897435,0.21681494244409372,0.19023343036700563,-0.05184241467303851,-0.0822648554842262,0.013587995042374673,-0.29649046692003184,0.06060494483100763,-0.0435553312654149,-0.04681823722229726
180,0.3765303138067221,0.09090913537272718,-0.07781724601083134,0.22185632817788983,0.19456414162877295,-0.05197976154266421,-0.08224986716993754,0.019212820452870896,-0.3391005250495554,0.06061289983354669,-0.04235322805407486,-0.04282441746784217
181,0.3869330789121101,0.09090930599639296,-0.07810098946904194,0.22525186471413708,0.199891421157885,-0.051947757515376086,-0.08225088977460006,0.021975037372300776,-0.4073307788638012,0.06057299779859331,-0.050354305202000564,-0.04341001313573805
182,0.3903275747706794,0.09090642193579558,-0.07343800801705401,0.22662226141128983,0.1892529601920363,-0.05191681558093198,-0.08225121764699023,0.021543744417203775,-0.46429023303083333,0.0607398962136745,-0.05208431804072626,-0.04325608158775191
183,0.388758558311744,0.0909260450433758,-0.07369377599521294,0.23268418368494273,0.11560947803160777,-0.05205645404403984,-0.0822510288110328,0.021765168761363588,-0.4884416117291464,0.06016559018794415,-0.05196751769067289,-0.04332382967441114
184,0.4026854798009533,0.09082584740625077,-0.07355988576991375,0.2335264010396826,0.059621753960732396,-0.0517164306124416,-0.08225113486630119,0.02141248717754749,-0.4937824162028406,0.06466613849481156,-0.05193401071552419,-0.04322664133413133
185,0.4094845586766119,0.09124813816476367,-0.07360164994017263,0.23766570097600961,0.0032117257092051836,-0.05636500554809601,-0.082250907720134,0.02606240279494368,-0.5034101813509662,0.06500368765873488,-0.05195278853580086,-0.04319735671334605
186,0.43014718853968364,0.08787393049145932,-0.07359122823713586,0.23805675080052507,-0.026158323296560548,-0.056077843100692464,-0.0822516898726473,0.025763357711286662,-0.507180562295857,0.06966372195362167,-0.05194680892042748,-0.038625311346335435
187,0.44330896332614095,0.08246417780632319,-0.07359339182360351,0.2390417564662001,-0.05020130665878289,-0.0572040422694309,-0.08224950283281665,0.026982823198859134,-0.5164290514151024,0.0688510495769991,-0.05194832394386648,-0.03908330559934256
188,0.4591671535404822,0.08223756193498478,-0.07359303830110347,0.24859932243783328,-0.06470207553743478,-0.06290368667030624,-0.08225178403579148,0.03217232805463244,-0.5280812091487125,0.07114687414173447,-0.05194800378762825,-0.03892044088050357
189,0.47711475146259436,0.08289919060145678,-0.07359307114469611,0.25236918463071784,-0.08331251633163304,-0.0652223086956185,-0.08227853188841695,0.03759091461717163,-0.5260640661631643,0.07397467815201039,-0.05194805763267548,-0.03900167858788916
190,0.5372866329194728,0.08674568795438455,-0.07359309052901561,0.2603333434188015,-0.08857266509296328,-0.06488118458521369,-0.08201683109682678,0.03869983735509887,-0.5500905190014154,0.07352149326109148,-0.05194805207924166,-0.03884017626289845
191,0.5649214533434684,0.0883940227633116,-0.07359296780013758,0.2672475578581572,-0.09579993891174068,-0.06494238037808706,-0.08383199839164553,0.04281988826143476,-0.5714113797897729,0.07360279235328288,-0.05194805162537864,-0.0392814841051266
192,0.5968908103767029,0.09131032618758371,-0.07359362529122117,0.272202721828328,-0.09727761958692466,-0.0649348402589976,-0.08700546796105325,0.04324783126092805,-0.5782700846491591,0.07359277500505364,-0.051948052106165925,-0.03469119385622504
193,0.5598582906612631,0.09083742385295031,-0.07359068877030955,0.27275420668307904,-0.09990974070948948,-0.06493480534781226,-0.08649261331795159,0.04779737208473505,-0.6239098765400344,0.07359272613393805,-0.05194805171615624,-0.03470040688206459
194,0.559271975519356,0.09091768949208878,-0.07360158000393467,0.2727444939173305,-0.0996010699439538,-0.06493517971724118,-0.08659431637197008,0.04841371114492523,-0.6817697852207876,0.07359324903616525,-0.05194805283067939,-0.03460122338764906
195,0.5155488897525697,0.09090923378889733,-0.07357107603915675,0.2805994803590645,-0.09939531403480979,-0.06493503013633853,-0.0865787610148426,0.052548400316327286,-0.7237820684174657,0.07359289532847352,-0.051948048736240544,-0.034644696474626833
196,0.48436355360487665,0.09090866872169638,-0.0735994517023255,0.2975926538167483,-0.10407594600196635,-0.06493507640577184,-0.08657991424883502,0.05137248400267746,-0.7905031726884992,0.073593701748605,-0.05194806080800322,-0.034612743520940605
197,0.4679380956874097,0.09090899589624314,-0.07401904353882212,0.2986738135191672,-0.11001562418191209,-0.06493505093061752,-0.08658021789441442,0.054956787253770345,-0.8270212533685035,0.07359067016820213,-0.05194804449036222,-0.034699036372399975
198,0.4562607524346163,0.09091050754896549,-0.07835396943389047,0.2999049778540387,-0.12550797883968853,-0.06493510330885369,-0.08658004138096691,0.05635953118081888,-0.8149528949774874,0.07360050461435268,-0.051947925113289724,-0.03442599787389296
199,0.4416336187415054,0.09090263326126859,-0.07779739729299129,0.31637293593364846,-0.13997186919147733,-0.06493499934520618,-0.0865800986958254,0.0598822224362594,-0.7802851810565126,0.07358028771885766,-0.051949222459255914,-0.034986443682846556
200,0.43925866741930064,0.09093267564717834,-0.0779515375435246,0.3285733893939113,-0.1547324129281297,-0.06493480871486523,-0.08658008385236532,0.07420141558135528,-0.7450100978878083,0.07354311046800979,-0.051941228077924194,-0.025671097403382716
201,0.40254684132775803,0.09084540154177353,-0.0779164728363248,0.33359633209410305,-0.16949834318708393,-0.06493850648185279,-0.0865800870738665,0.07788243683823103,-0.7383327852605625,0.07429726333571189,-0.0519799156020213,-0.026169493993440616
202,0.40437283483327824,0.09094941502950168,-0.07792243563670076,0.34292475438829545,-0.18665311858549236,-0.06491271787830892,-0.08658008655423129,0.07896310347905956,-0.7228287835503237,0.07836044264467378,-0.05182387937724154,-0.02593132806544139
203,0.3945868285791334,0.08593586004497142,-0.07792261505499755,0.3486883504955339,-0.24071283458181142,-0.06504677930876035,-0.08658008655509203,0.08438012422676684,-0.6908828194970936,0.07791381113822322,-0.05233067137166056,-0.025873990920901712
204,0.37821525756470425,0.08194090358305339,-0.07792763322581736,0.3574729726032267,-0.33278615206728884,-0.06446902434073058,-0.08658008589744716,0.0891624945331386,-0.6848548563258375,0.07748060894540386,-0.047834902460713265,-0.026459687678476645
205,0.3518171556515293,0.08233752728654471,-0.07786510854506434,0.3612490592227447,-0.3236364610702142,-0.06827653648370303,-0.08658009262556926,0.09412510134277965,-0.6610816347166606,0.08126498280827121,-0.04766244921757295,-0.02255286796927893
206,0.3388001061534955,0.0822522085610383,-0.07826530433032783,0.36981961291779025,-0.3165695852475436,-0.06937351329308816,-0.08658005171748782,0.09897985464746399,-0.6311567896983605,0.08234642335379644,-0.04759187751681815,-0.02172797907294796
207,0.3110987761741485,0.08216759983596601,-0.07572686849633121,0.3789675936825455,-0.2924970700938068,-0.06926581215968122,-0.08658024941026939,0.10392120017725508,-0.5999286787698108,0.0822479537627282,-0.04762794751242411,-0.017262950542949962
208,0.2574886340171083,0.08250943770910418,-0.07326007603664,0.39795244870534835,-0.2825765217944895,-0.06925581184324356,-0.08657944497029343,0.10980949159008944,-0.5649879120591548,0.08260599908128195,-0.04761675188655193,-0.012987613239956921
209,0.21662354009468174,0.07821242997040308,-0.07364737021477101,0.4079202191081967,-0.2661680440238424,-0.06928508118014416,-0.08658213286424123,0.12337057648212554,-0.5301901824982191,0.08807208331511075,-0.047619538854051624,-0.011213769781897287
210,0.1921886331741347,0.07351572114987491,-0.07358729303207615,0.42447993461129074,-0.2601214339354715,-0.06916140697355204,-0.08657606512880128,0.12670842014646022,-0.4816343625855214,0.09134992634065259,-0.0476189730398854,-0.0015417026952342856
211,0.1542853837303195,0.07284719392700516,-0.07358907600753345,0.4406457895268045,-0.2505250975782271,-0.0697197271807623,-0.08657098557524101,0.13472419069014466,-0.4745018424560857,0.09037482071223772,-0.04761903271356219,-0.0002902852921960866
212,0.1364638579919895,0.06876692494973925,-0.07364087791482038,0.45448593287877276,-0.23664105107858038,-0.0661704985922766,-0.08673793728482347,0.14179984577276267,-0.38579561954963365,0.09401558669407309,-0.04761902233703586,0.003123337624635992
213,0.10637459804423853,0.06941783581997206,-0.07328160962204788,0.4701569106104222,-0.2334493351434967,-0.0647738048375299,-0.08537293230907296,0.14630706407392485,-0.3681567337439688,0.09540432671407709,-0.047619773734726624,0.004307502348445548
214,0.08040701901139946,0.06911338528046311,-0.07560409961016941,0.47447163107177526,-0.23429162381006954,-0.06494435742776317,-0.08178549775392628,0.1551815727593809,-0.31758664278144116,0.0952203309415098,-0.04761377053920777,0.008324880503236974
215,0.028650179803854706,0.06966543436492921,-0.07828465153983855,0.4917714363288771,-0.21397393057400863,-0.06493915140762119,-0.0823883439018816,0.17405007786474305,-0.30827309244491014,0.0951524062144406,-0.04764692650276604,0.017966678539274708
216,0.01929798307656878,0.06518515172893968,-0.07786085403790852,0.5111887385409818,-0.19959176569542794,-0.06493299702763569,-0.0821118777243077,0.17911131507039454,-0.2475411527816357,0.09612491362537715,-0.04749777404292634,0.02186967222666614
217,-0.00762627588723118,0.06496082135315702,-0.07792429147950418,0.518232562796337,-0.18906336310347663,-0.0649357083871155,-0.08257853669838235,0.1876281753315209,-0.21537301020534735,0.09969555068414121,-0.048055912779029035,0.021531990818877793
218,-0.017416687974019195,0.06508250558842196,-0.07791812278855328,0.5414068702282114,-0.16115528193933643,-0.06493490343815762,-0.07799773866838136,0.1966337986331035,-0.2085066983058673,0.10159601656199171,-0.043835500797370315,0.021879836716704727
219,-0.025062736102687097,0.06363772984467575,-0.07806202352824274,0.5476184873274107,-0.11878886111528456,-0.06493509890400706,-0.07798637843606789,0.20753867318330324,-0.1766016296215756,0.10428114700301265,-0.043265321698844436,0.02076697657320067
220,-0.053285442228424754,0.06004590988762325,-0.07677585825418305,0.5678712227388779,-0.1116371654774413,-0.06493505924218568,-0.07789366954432961,0.20701247813624005,-0.13564192175642945,0.10377630075043785,-0.04287837854498268,0.02840697832203903
221,-0.07641698073837883,0.061160897892443375,-0.07312559031099443,0.5788589509316107,-0.107810338975461,-0.06493506551375841,-0.07792437224595801,0.21905310484989174,-0.11562046324617922,0.10402183776468,-0.03854375495859439,0.03404198075938471
222,-0.07799976274718486,0.05722643333660681,-0.07373027993213432,0.5944841537067389,-0.09337505711966124,-0.06493506498426768,-0.07795126797455769,0.23858672130156156,-0.10360802420008002,0.10412112210481539,-0.039083573811687665,0.04347690257912895
223,-0.07829496450756569,0.0561171646206061,-0.0734564867086263,0.614654596924705,-0.07427415855939705,-0.06493506491081753,-0.07779771048999831,0.24811595312670173,-0.08927784644620922,0.11324429932952984,-0.038931623889079094,0.043078717590715215
224,-0.08263710331858082,0.05619758770926787,-0.07390530952575,0.6300343464484792,-0.05175723610795491,-0.0649350647930447,-0.07832532709613566,0.2580894055283598,-0.06664567075880536,0.1122907824148865,-0.03896686587047166,0.04361847535351895
225,-0.08213093520419959,0.05159011687940552,-0.06930976854428657,0.6466459059983038,-0.04024020983424646,-0.06493506575246072,-0.07389780759115956,0.26816204602997334,-0.04758957002563824,0.11272591117145075,-0.03896028016476269,0.041888543999981834
226,-0.08228920466537505,0.05229666993301945,-0.06944147076023217,0.6551785050713662,-0.016731690460446955,-0.06493506140370407,-0.07361841471231569,0.2757896784674773,-0.017146435444697097,0.11208289467280626,-0.038960901839638955,0.052619000357945395
227,-0.08221120396016222,0.05033332947986216,-0.068252912194062,0.67397916551327,-0.0066708244744968755,-0.06493507753846481,-0.07356959170916795,0.27921587737706555,0.0025968436359860695,0.11576754411454845,-0.03895980862926772,0.06825513111868521
228,-0.08236382237116587,0.04516334643416069,-0.06447992560129048,0.6905631829993781,0.01507289002272965,-0.06493503187344254,-0.07359590953539848,0.2927007714233945,0.0175410902247484,0.11707568523993174,-0.03897527285900079,0.06908328978825543
229,-0.08199602869183459,0.03972579450815423,-0.06503545135817686,0.7117439966273007,0.02777772717389567,-0.06493508023347792,-0.07362113187173194,0.2986684567595256,0.029851988031224807,0.11685197933932667,-0.038872358939306885,0.07354624197314606
230,-0.08662281756412285,0.03916114694730152,-0.06494648637216692,0.722104576476301,0.039645374044523785,-0.06493563931212214,-0.0734615179118634,0.3038995249931608,0.05549005267798299,0.12186853966251338,-0.039392572999144976,0.07338193857114823
231,-0.08649804601463593,0.03464374709262655,-0.06484118129068825,0.740937651092411,0.05459660893069978,-0.06493015333795664,-0.07407376882417178,0.3140288670453129,0.0698742110360989,0.12585460469311088,-0.03614824478334136,0.07492686289759169
232,-0.08661118736322009,0.03471551527412342,-0.06506327776166634,0.7468522911904429,0.06022047756696471,-0.06496296341968044,-0.06974745204153288,0.32343744101834015,0.08616324925253796,0.12544762378443608,-0.03444199600210222,0.0874897282645188
233,-0.08657307683687775,0.03458387851143513,-0.06040291673375763,0.7688357451149141,0.06058113896884374,-0.06480665717049613,-0.06932203127880773,0.3348455578995466,0.08996259147151704,0.12556966764836952,-0.03459411905220611,0.09995157081143156
234,-0.08657353266767175,0.034724927277251905,-0.06071301492745119,0.7827468381717819,0.06575289091216792,-0.0654303156147516,-0.06466695165490463,0.335964047164603,0.09042809906144109,0.12551235359430013,-0.03452799895071994,0.1104123436927425
235,-0.08661272691565933,0.034254867794109176,-0.060572566313412436,0.7838514233216953,0.07493413889083403,-0.06122966195467039,-0.06526693635950048,0.3552577719834654,0.09948289357606638,0.12561587990907314,-0.02992684895745962,0.11245987464420815
236,-0.08647944186752046,0.03602829244128358,-0.060614599656187616,0.8054961679398391,0.07965905793563093,-0.060714914408324445,-0.06341396958053079,0.36366356033021935,0.09941833960270319,0.12542125896399361,-0.030638455472813853,0.11668559729553162
237,-0.08675055234328705,0.023353958405007147,-0.06060365958924049,0.8087131126840836,0.0826236688100241,-0.05609872615259508,-0.060178859666631355,0.36870092573164354,0.09963064935274904,0.1302433765309034,-0.0287778210073917,0.11698371880676849
238,-0.08210298591107476,0.021654057686834143,-0.060608446789455914,0.831366586167759,0.08217241300312593,-0.056399042747903645,-0.060698535484773726,0.38288300947025034,0.09954846280130743,0.13447521697005338,-0.023005045848950682,0.12237822316461038
239,-0.08234868735577462,0.01703329361911623,-0.0606020211568761,0.8365020019764347,0.08226443778505549,-0.056156514988555985,-0.06058291463419353,0.384267260975332,0.09957157809041074,0.1341145527994211,-0.021452498538332365,0.12568291285916908
240,-0.08221822525817322,0.01740708838411501,-0.06059511249372474,0.8528453053942282,0.08224965755729799,-0.05670703985503855,-0.06062443291899236,0.3927441230360367,0.09956621110620283,0.1341924078738028,-0.021671079572241465,0.12684154520758978
241,-0.08225983563139586,0.017533980419709154,-0.060779404548609674,0.8641590664047389,0.0822509887331047,-0.05355500100148925,-0.06062963095463588,0.40861518372588784,0.09956721071274055,0.13431903719248586,-0.02164458063821373,0.13488080203361
242,-0.08224910692014632,0.015507447365316231,-0.05929472071571494,0.8669375350897491,0.08225118676319577,-0.05171096977104787,-0.06004543394762673,0.41802684559146486,0.09956713039868248,0.13377565542551018,-0.021613079675898463,0.145259726720265
243,-0.08225145449751498,0.009694320038896894,-0.05593719941972761,0.8800103042923636,0.08225104438301163,-0.05197566583594,-0.0558236449264353,0.4234836749526734,0.09956732706550486,0.13813543796400465,-0.021897302290879,0.15126649931183092
244,-0.08225102851923333,0.00854983090683031,-0.055910009906859154,0.8825898454540441,0.08225109198902768,-0.05194883326296975,-0.05642885314961258,0.43296513638730033,0.09956438917284736,0.1385172880957071,-0.019954271458458957,0.15149976564750342
245,-0.08225108610122324,0.008625785669851041,-0.05960420004660393,0.8955734803575145,0.08225108308052402,-0.051946430616070294,-0.056124865092210416,0.4332272458188165,0.09958414453891579,0.13854856066330018,-0.016929430777609483,0.15193091408602427
246,-0.08225111651727554,0.0084337299024859,-0.06071576547375684,0.9006082668071311,0.08225107077232656,-0.05194876911455139,-0.05673689184804474,0.4379400594557728,0.09948357189128564,0.1385346713887398,-0.0173067211868519,0.15719076410317936
247,-0.08225078232471578,0.00394110676262528,-0.060609662605548016,0.898763929280049,0.0822511159054352,-0.051947309449225494,-0.05253745530290212,0.4359666131197339,0.09990876814917174,0.13844948246270217,-0.01756459989081119,0.16186035837450433
248,-0.08225283692765097,0.004447263738146125,-0.060563915099345667,0.8804571833057075,0.08225104526200672,-0.05195062219108309,-0.051924998165631744,0.4444691138751074,0.09656581028625433,0.13888643798849373,-0.013242494471642493,0.1674087404018019
249,-0.0822427605619203,0.00432988321745434,-0.06087961634476933,0.867314103355857,0.08225068015013064,-0.0519386886187743,-0.05201502497765214,0.4516386980322857,0.09116761687937898,0.13576851375113655,-0.008503928414551857,0.16857282387105652
250,-0.0822845709865725,0.004203475487107183,-0.05881077982582532,0.859670665348441,0.08225507532639234,-0.05197446978111092,-0.051085805184267544,0.44360793042982455,0.0909230623757738,0.13056611270954896,-0.008736671303223023,0.1726172607101468
251,-0.08213983280622338,0.00475886044004505,-0.05588184761971088,0.8348934989689311,0.08222711012415328,-0.05192025923382302,-0.04739671539485741,0.42890768304784316,0.09089173590364186,0.12572665099266508,-0.008633683971966916,0.17309644564734503
252,-0.08250311667037011,0.0002546571228897129,-0.056351561792203984,0.8277572841033721,0.08236598659690095,-0.051615150964438875,-0.046042713926205014,0.4237183552738423,0.09091542174151651,0.12104224600736728,-0.008663512916636034,0.1777532814636857
253,-0.07787512622863538,-7.245394848326955e-05,-0.05626690973965796,0.8092164846781248,0.08178685206833214,-0.047431451481948314,-0.040116233756827026,0.4130374652815753,0.09090735581289157,0.12123564171830789,-0.008659137886756456,0.1771522037392487
254,-0.07800750700608375,0.0018828736664049889,-0.05627737315039542,0.8096031890453006,0.08567536747676155,-0.04622212202716919,-0.03880147930147031,0.40655405265032435,0.09090948957124231,0.121555155092401,-0.008650528511293547,0.1790500827670546
255,-0.07787042327707876,0.014382192166090024,-0.05627741471188496,0.8113875035653056,0.08669035405489584,-0.0429428261813061,-0.03897871980815032,0.4050202198939038,0.09090900409281762,0.11891191648929283,-0.00867279253279784,0.1821111111856622
256,-0.07803965862819857,0.012548069986854083,-0.05627687632451952,0.7962548862831446,0.0866030894757086,-0.04292103723580054,-0.03896190606830813,0.40068088154389375,0.09090913497882112,0.1170374211473257,-0.008696721837632511,0.182252153127208
257,-0.07743313676368518,0.014297309379577228,-0.05627723670333262,0.7628436512265039,0.08603573830351344,-0.046777555752916755,-0.03895984445438971,0.3878474480822466,0.09090906957378637,0.11334923407845629,-0.008004588908166995,0.17814764704519492
258,-0.08107486977380313,0.027654666383345704,-0.056276426193757945,0.7483305788121882,0.08182780385742527,-0.0476960732386058,-0.038961577438019854,0.381348705644665,0.09090854145225842,0.11264279387094107,-0.0038704553245281527,0.17776926761435405
259,-0.08203133341210622,0.030327497142812715,-0.0562794348300803,0.7344022227250508,0.08227077138993559,-0.047627377425396154,-0.03896038284732689,0.37184467846976615,0.09091392066985493,0.10800589216398508,-0.004452328017180565,0.16844386986750798
260,-0.08639938038291163,0.034673205351624194,-0.056269943420454306,0.7104398710338452,0.08267944315758723,-0.04761213967979644,-0.03896342406237807,0.3624691154415951,0.09088139254331111,0.10301253539410418,-0.004293319826954414,0.16467612828028547
261,-0.08672306962539453,0.03453114517473754,-0.05628730865308267,0.6949722385724127,0.07914824960147121,-0.047621437711692416,-0.03895229269583998,0.3495206738926014,0.09103721649128564,0.09921923895838426,-0.004364836822167736,0.16203529807462022
262,-0.09130336174323456,0.034672904954712556,-0.05634306753865447,0.6719179111106699,0.07775946945994422,-0.04761844608980743,-0.03898616147681769,0.3344601433285344,0.09041346947587633,0.09955791143334625,-0.004253192529878744,0.1551373099435811
263,-0.09077688931316844,0.03460734921014727,-0.05548666885461827,0.66441137026497,0.07793340664074669,-0.04761901966135296,-0.03893008111098357,0.33014171196530795,0.09461129318618353,0.10000504339318558,-0.004308947745685899,0.15424958642373438
264,-0.09094423233053632,0.03469625855781477,-0.051482882454054815,0.6488240991159909,0.07794026425555535,-0.047619627097022034,-0.03868743894766175,0.30885853164122606,0.09512924107872549,0.09632145674787253,0.000300344697577038,0.1451353979644602
265,-0.09090117742129018,0.03440740334577914,-0.05206551075293151,0.6150806056667436,0.07777199779225556,-0.047617498063625835,-0.034236688401213175,0.2944106451590007,0.0997472624318746,0.09507564684232728,-9.914582295174839e-05,0.13877877494558283
266,-0.090910575164463,0.03783253545195169,-0.05192331309049526,0.5732448520386358,0.07901486631698107,-0.04761946398953808,-0.03475704630603134,0.29446501348036586,0.09944453381695141,0.09524943098644294,-6.940347604739557e-05,0.13852978276698144
267,-0.09090888609003854,0.04750861651288891,-0.0519523085267816,0.5513715544531878,0.08478534674828747,-0.04764851894784092,-0.034598118906338425,0.27054406691841,0.0996881268809845,0.08977504579038739,0.0004492332712642009,0.13886445512330894
268,-0.09090909879099064,0.0528073479429523,-0.05194734798833817,0.5274336393158529,0.08683930018673709,-0.047374747920172385,-0.03464782790125612,0.2631804225263568,0.09913594163397074,0.08169721237313587,-0.003122734766573382,0.13541969078141372
269,-0.09090910362260855,0.06212041630279938,-0.05194734337977538,0.5102278292572607,0.08653491629144731,-0.049262599941337325,-0.03460074924446893,0.24523441164910784,0.10230641638599416,0.0811184592991852,-0.004482374204516245,0.12492449073485798
270,-0.0909090344327155,0.06689204313933542,-0.05195983754848587,0.4706973452063392,0.08658526428069654,-0.05237149689146668,-0.03470087436148217,0.2233418435491368,0.1041376758130025,0.07544849146917197,-0.0043219509525879414,0.12099165071869777
271,-0.09090940363310385,0.06926717686450597,-0.05186781366114103,0.45713714204725214,0.08658025830225269,-0.05183809303919666,-0.03468185671020131,0.21341625358690683,0.10384898787355555,0.0708236528023459,-0.004326171709893134,0.11701871380631737
272,-0.09090761505940817,0.07187484670819505,-0.0523584885891251,0.4108509503702926,0.0865799637996115,-0.052041175579690506,-0.039272599344440925,0.19277260848001912,0.10387617100043132,0.06548952744632314,-0.004315230576068776,0.11001855562552423
273,-0.0909150172242916,0.07716104462299603,-0.04930037067258462,0.38763542345845386,0.08657876791194975,-0.05182587997838022,-0.03884777542057334,0.18670711324754635,0.10451132627795086,0.06489388637533909,-0.0044221493567749666,0.10409120960671807
274,-0.09088946158965218,0.08203974409579093,-0.047369732514916156,0.37864745240542746,0.08658779004956975,-0.05661966853068165,-0.0389669034523714,0.16775094594770923,0.10812167386697508,0.06490891040552275,-0.003887853467547376,0.09922067902186275
275,-0.09095320019409073,0.08696549280065857,-0.04764917195437578,0.3723505266913865,0.08654567770600367,-0.061695103857525614,-0.039075208776866495,0.1587454766002621,0.11171342083981646,0.06512991907033569,-0.007251557839801217,0.09441631689200908
276,-0.09094506463070452,0.09195457106752282,-0.04761946449829694,0.3570348462601506,0.08670891021350578,-0.06498477693192792,-0.038505971841818566,0.15745096751303628,0.11770968807116788,0.0635672953913228,-0.008852992422219704,0.08893343261747981
277,-0.09618791772883319,0.0965038706300018,-0.047617474409983464,0.33893481174694473,0.08620344878307831,-0.06690347995500308,-0.042639675745017785,0.14298737608908496,0.11669667808597105,0.060079086170418156,-0.00864128315942445,0.08732918763162081
278,-0.09881659062727333,0.10386881881661866,-0.04761965762455801,0.31951759180468114,0.09077957479285226,-0.06964134854035745,-0.04333149552073553,0.11281811385133084,0.11699069535855453,0.06104334876261699,-0.00865512543240786,0.07911657951410517
279,-0.09468245171106332,0.11168061556870856,-0.04761887709318004,0.29252179312101806,0.09104364979208916,-0.06919858309516093,-0.043303826886428504,0.09954729409247237,0.1168164037219186,0.05760874347575127,-0.008659933005177709,0.0668114808693891
280,-0.09536996984504842,0.11276341251616268,-0.047619083942500424,0.27605580734444324,0.09641303403958161,-0.0692714443459907,-0.04328255529056414,0.07540158847421706,0.12148462930883235,0.052222916220622854,-0.008657340283856906,0.05715929854146916
281,-0.09521168008377723,0.11235702460184052,-0.04761905228554531,0.24307345184576176,0.09999074674757728,-0.06926438073545796,-0.043292435257114466,0.06922583829408725,0.12087096444690514,0.05196051901723042,-0.008658329592693557,0.05192189159608926
282,-0.0952422304475067,0.11702601058918195,-0.047619014969605744,0.22994464576668439,0.09902836690569045,-0.06926359972914559,-0.04328942890610592,0.064146127663623,0.12281936556947073,0.051893796082409155,-0.008657328460660084,0.045176932958664456
283,-0.09523775853175924,0.11683594421609855,-0.04761907519710195,0.2156611345751146,0.1024440202327023,-0.06926424407508239,-0.04329017719692346,0.05957338858431938,0.125935026683795,0.05222791859288954,-0.008660199392962753,0.02881133413428128
284,-0.0952380265659339,0.116577639572941,-0.04761953796529712,0.20629760960942106,0.10371446358201883,-0.06926402011549089,-0.04329001685548953,0.053004750118561504,0.12554545043574591,0.05015166716725695,-0.008652997657935322,0.029413251284858218
285,-0.09523813912524515,0.11902710819420034,-0.04761454821569841,0.19535467321272595,0.10777818012425688,-0.06926408369220745,-0.04329005303788065,0.04156762809802749,0.1252786840369641,0.047222411736576694,-0.00865410015068752,0.022771843739926252
286,-0.09523807907784947,0.12110529295854673,-0.04764519816057214,0.17874246408376623,0.10820744884367346,-0.0692640551625487,-0.04329004639664126,0.018813226940986368,0.12946031437722957,0.04769473682988232,-0.0087962210223103,0.022235040499275535
287,-0.09523810705780499,0.12455742930480859,-0.047497375883413566,0.17235542480508817,0.10876703868369693,-0.06926410273446035,-0.04328987188064539,0.005482107785216024,0.13427504294657852,0.04760839588827489,-0.007525338332643676,0.014507011082038002
288,-0.09523806069123077,0.12564029711964245,-0.04809040896650504,0.14889806533853783,0.11272443744071028,-0.0692640392277968,-0.04329135149563344,-0.004148775036948842,0.13465553109744144,0.04761951160565447,-0.003868061815203448,0.008689061547387997
289,-0.09523821519713223,0.12554694891643303,-0.043984202312196484,0.1388286976198736,0.11413822257168975,-0.06926361525292606,-0.04328292835178892,-0.00971984265935567,0.14034992466543536,0.047619373837803916,-0.0044346495074374355,0.008534248671080682
290,-0.09523777483472981,0.12553707415694215,-0.04328026503605096,0.12539861162617502,0.11732012334449461,-0.06926832998768495,-0.04332195185498306,-0.02347328767520492,0.14317870688250123,0.047618895239702023,-0.0043090439070913224,0.0020839914391286344
291,-0.09523832612542005,0.12552296800448173,-0.04350402124955316,0.1073380399847437,0.11680460769775002,-0.06923903498229166,-0.04316952310754444,-0.027698710831484095,0.1427870905976107,0.0476190938480136,-0.004331844246843107,-0.004853466285744343
292,-0.09524288207795371,0.12564845639702724,-0.04801296752332319,0.09933486520342331,0.11687075412748815,-0.06938192214433658,-0.043648202141111515,-0.030298499832683814,0.14287001032028515,0.04761903621059218,-0.004328834454028273,-0.0060217531235261254
293,-0.09519496641013439,0.12507698695204603,-0.0474936126446128,0.08625794001692678,0.11692008887218894,-0.06879900508772985,-0.03914743029716452,-0.03299074047784991,0.14285435375160224,0.04761904997629231,-0.004327027055679248,-0.011474454453486216
294,-0.0954893635157391,0.1288109367497754,-0.04764471923648798,0.07740397471270156,0.11710755860611773,-0.0727956909214491,-0.039069945703976636,-0.037311610838635836,0.14285623217811638,0.047619047235192793,-0.0043458074217498244,-0.01662740956119171
295,-0.09351412024541234,0.1299861831292004,-0.0476391430107766,0.06807707410072332,0.12164927196804602,-0.07366270312488743,-0.03818828932875035,-0.05099185144467188,0.14289320385887153,0.04761904765460506,-0.004232536067079165,-0.01743262521993139
296,-0.08774395286362287,0.1298701294284266,-0.04753167183591425,0.06916702002566558,0.12074667952739322,-0.07360229365840869,-0.03417842103789391,-0.05625072722236219,0.14258744483832914,0.04761904762375657,-0.004775518309055104,-0.017495883159645714
297,-0.08641736938331182,0.1299846696488359,-0.04780315072254202,0.06963842480078668,0.12338410018929286,-0.07358615572337171,-0.03474896624149503,-0.05720575447043503,0.14463554406747797,0.04761904761550567,-0.00134769774369784,-0.021695275595432908
298,-0.08659839458365232,0.12881840335183026,-0.04311306569082463,0.055694753660427344,0.12543217679491334,-0.07359543388559905,-0.03460877062574629,-0.06856085513399132,0.1475848721745374,0.0476190476203147,0.00018291645001949084,-0.02384249508882121
299,-0.08658086242767857,0.1250765702602636,-0.03809452496313413,0.05641835354744554,0.12882301041319638,-0.07359244769889046,-0.034628381301055125,-0.07343335085949468,0.14710989764593815,0.047619047618414304,-1.3879680908322517e-05,-0.032782081831185
300,-0.08657890322379638,0.1256494221557362,-0.03428738992218799,0.047041435400211086,0.12998746572205458,-0.07359321246860093,-0.03465141852724036,-0.07871814410010675,0.14719707249548475,0.04761904762044478,-3.3763896416686724e-06,-0.03741022257545255
301,-0.086580537379996,0.125520357764765,-0.03462123581061083,0.038200195741033456,0.1298708927745348,-0.07359304840487799,-0.03463559171130012,-0.0827835391290189,0.1471854971233625,0.04761904761440013,1.986355844899467e-06,-0.03927017746399597
302,-0.08657993386302945,0.1255440477766367,-0.035074597214875096,0.03646931549306839,0.1298945565364852,-0.07359307675479913,-0.0341722493719231,-0.0821893576900216,0.14718298808081812,0.047619047630641974,-6.492821559500082e-07,-0.03871925035119877
303,-0.08658023655284536,0.1255410009398918,-0.03134986448285007,0.03424228132595095,0.1296337031383953,-0.07359307358527888,-0.0298686212272244,-0.08225094604093318,0.14721283061187165,0.04761904761839782,2.0607397188774376e-07,-0.04328132859720966
304,-0.08657962602419363,0.12554103612385692,-0.030183808901519615,0.034927308086210994,0.1314676463203499,-0.07359307367284813,-0.030427748193100235,-0.08213789963664168,0.14703044033998272,0.04761904737888664,-2.0747277165974953e-07,-0.047830284265270924
305,-0.08658145647062904,0.12554116372852522,-0.030302708262970983,0.030259676446477694,0.1356213911608723,-0.07359307182981717,-0.03027327163426994,-0.08327044488144385,0.14850233937322524,0.04761904955270796,5.779996240364998e-07,-0.04753350588242444
306,-0.08657787720519754,0.1255411320794834,-0.030311080835345037,0.02980504000392456,0.1477683210241482,-0.07359308368210613,-0.03030899046295504,-0.0870458004816554,0.15781134347193626,0.047619036897241916,-1.232609876821647e-06,-0.047643660304972094
307,-0.08657000614128464,0.12554104019265275,-0.03028218461659863,0.02577077853912963,0.1521263226906485,-0.0735930278597357,-0.030302103243974553,-0.08646947984209634,0.1601032920027898,0.04761909614289881,-1.7310338676272027e-06,-0.047613190741514
308,-0.08670713199715051,0.12554146712575467,-0.030405695249404018,0.02430761018746089,0.15130520323230862,-0.07359324685984997,-0.03030310394738564,-0.08660197450840072,0.1642658123537413,0.047618863795496236,4.0163822364687044e-05,-0.047620249760992266
309,-0.08561365085424476,0.12554008970883168,-0.02984663223911601,0.021217475560592884,0.15594248346903522,-0.07359256154341944,-0.030303052189937944,-0.0865767813526992,0.16458630113415276,0.047619590864406654,-0.0002854224570348945,-0.047618738484348826
310,-0.07976807071074557,0.12554268847816422,-0.03341959242786438,0.02172682994178139,0.1565015998508363,-0.07359378706472415,-0.030302952618696918,-0.0865803109254012,0.16991596212408575,0.047618290680589544,0.001865786911876915,-0.047619246845982253
311,-0.07801735729433416,0.1255501914341433,-0.03478611150916949,0.02163341689591956,0.16044276188773654,-0.07359796216044029,-0.030303465532493804,-0.08658015766065726,0.17348697891982998,0.047613861225725404,0.004723443028468897,-0.04762033520924574
312,-0.075051788886144,0.12543534238557044,-0.034624868540025576,0.02164556217645854,0.16159259486238683,-0.0735388881559616,-0.030300882757176326,-0.08658004772996827,0.17307509186050074,0.047676534192920283,0.0042260421567996325,-0.0476048154034472
313,-0.06995364622142182,0.12620255801740843,-0.034627515010862545,0.021645364552913913,0.16769677892073442,-0.07392833853387161,-0.03031199094462301,-0.08658009894771342,0.1731765234388357,0.04726335734850896,0.004420718880505476,-0.04770709544692586
314,-0.06498475774226235,0.12128997818780994,-0.034634161558642865,0.021644858710405016,0.1685761428231541,-0.07146375750651045,-0.030271985186330983,-0.08658008337581444,0.17316510113480352,0.04984766560299142,0.0043008017431357525,-0.047190988192861764
315,-0.06498813274748198,0.11619545466322792,-0.034631414889762235,0.02164507145592158,0.17269044243241224,-0.06904478601572044,-0.03038021023085187,-0.08658008749411378,0.1731408810887945,0.05176325943444578,0.008932806173487918,-0.05040312168610301
316,-0.06491086380837047,0.1169964809817529,-0.0346320755906178,0.021645009262980165,0.1731614124369247,-0.06888621739591355,-0.030298647801640127,-0.08658008565873535,0.17315237996845415,0.05554687658819812,0.008542998579820452,-0.052172576969536186
317,-0.06494407087758311,0.11687325115705864,-0.03463245908798985,0.021645024228940633,0.173180855189816,-0.0732921447418801,-0.03491499031349998,-0.0865800883502494,0.1736550076569538,0.05587264052760434,0.00869140333250843,-0.05192397638688994
318,-0.06492496625696864,0.11688473050151718,-0.03463063076178898,0.021645021216394826,0.1731568804340563,-0.07363623213775387,-0.03451672477686396,-0.08658008876029581,0.1779254150072424,0.06506529891923872,0.008650055659673353,-0.051947050230155396
319,-0.06496860187344326,0.11683617953714186,-0.03463437190243061,0.021645021687373457,0.1731325946258891,-0.07873336539228365,-0.03466549573039636,-0.0865800317564621,0.1773926131292434,0.06531945183860267,0.008659580549435044,-0.05193952020636988
320,-0.06482583723673105,0.11720770463036592,-0.034642464388024215,0.021645021649292037,0.1732968157135257,-0.083435777499847,-0.03462398572934857,-0.08658048033835838,0.17739559919790496,0.06973073802685938,0.00865777301778622,-0.05202093498487628
321,-0.06517628956009815,0.11480237114315067,-0.034498784026416804,0.021645021641337286,0.17263265213928572,-0.08885718486811464,-0.03463366172618008,-0.0865780123573189,0.17793720144165723,0.06973684149794357,0.008658023910692664,-0.05156102366186859
322,-0.060544529597715065,0.11265151130657507,-0.03565942401654289,0.021645021646311182,0.17695899471850207,-0.09087773702048484,-0.0346317775409629,-0.08658912105746489,0.17376099580137297,0.08169585633011274,0.008658013497766995,-0.054433057221319796
323,-0.06076056373384794,0.1092721318882374,-0.041582992793699834,0.021645021644672923,0.17720627056124225,-0.0935936828837768,-0.03463205615330839,-0.08654732321361698,0.1731318131879696,0.08688183528174487,0.008658010862404343,-0.056673654361516966
324,-0.059963855667104445,0.10811650502158045,-0.04308299854429709,0.021645021645106236,0.18647436876078685,-0.09915434206088028,-0.034632038673647246,-0.08666907224232799,0.17314861282850694,0.09025796720530987,0.008657978725648476,-0.055913131419099364
325,-0.052653823093201,0.10822462623125939,-0.04666711468778013,0.02164502164498466,0.18576886019473324,-0.09959161378340746,-0.03463203182910241,-0.08651361192377122,0.17312142845953502,0.09093145892492575,0.008658157042721307,-0.06053642777009201
326,-0.04494710208753041,0.10809735362681493,-0.047714214551077716,0.021645021645082658,0.18749383942039002,-0.09979862619199507,-0.034632036657169414,-0.09113179226826047,0.1734345645982987,0.09092360479411693,0.008657411060324825,-0.06054091050136304
327,-0.04016916516175171,0.10018626151622886,-0.047625311476753904,0.021645021644991422,0.1910048549627127,-0.09732690926342032,-0.03463202863942317,-0.09102516701247414,0.17128465735280238,0.09096049929417274,0.008659944490036112,-0.060635440284706965
328,-0.038553651321878414,0.0885696379774386,-0.04760909894751058,0.02164502164402164,0.1899815271639963,-0.07044902677306905,-0.034632058927545964,-0.0893816664351797,0.1660478887438684,0.09055827565925349,0.008654134516335637,-0.06059725195086039
329,-0.0393794272077931,0.08086087528872304,-0.047643614109930864,0.021645021653648223,0.19354614885044386,-0.04182074751041964,-0.03463194973254433,-0.08614560376268716,0.1609037130554291,0.09315526924888967,0.008649552120283276,-0.0606082275290877
330,-0.025182079341217193,0.05804621659149403,-0.047502935968242954,0.021645021595804524,0.19826687412788813,-0.004155193531520988,-0.03463225098228644,-0.08666906113567222,0.15997173295269454,0.09557048467165649,0.008808388325390831,-0.06060557307806431
331,-0.015612348973307922,0.0374941878885199,-0.04811583883579138,0.021645021872588557,0.20773038334236188,0.02496205763666885,-0.03463197591131562,-0.08656577697501375,0.15974051907628642,0.09516552013312903,0.007490975266165029,-0.060606275829625404
332,-0.006814246962712721,0.009116643514120518,-0.044244731262281824,0.021645020761216154,0.21226209250044753,0.06992220969836134,-0.03462796580346483,-0.0865814124989564,0.14545596763052795,0.09527887136709294,0.0034647116071362693,-0.06060579697394272
333,-0.002541219089744765,-0.024091813084552285,-0.04346558393307529,0.021645024380926227,0.21206243530839644,0.11937392844903337,-0.03466581464010255,-0.08658054430480051,0.14268386863044422,0.09536536685750516,0.0070646221479624995,-0.06060516544687643
334,0.002937740566842593,-0.03818203406023588,-0.038975287086721516,0.021645016893276296,0.21213716197191015,0.1606599362359164,-0.034441771652741954,-0.08657632484703423,0.1432938307393211,0.1006261729874617,0.008868523019862507,-0.06061868245102324
335,0.004532316380990573,-0.07251325220396802,-0.03904307874489435,0.0216450037634887,0.21212329112714454,0.20728057844183187,-0.03550674232875525,-0.08660391582644776,0.14019622181462307,0.1040219748569103,0.008691410760430953,-0.060523216848215156
336,0.004299845135976622,-0.10506221816294722,-0.038927237695070394,0.021645265415514436,0.21209772324853646,0.24962495658755357,-0.02879000370669582,-0.08646047062211062,0.1382791867274681,0.09138891966267344,0.008661495571005314,-0.06102268132095152
337,0.004330941197424136,-0.13200343596091996,-0.038972700480280474,0.021643432322427724,0.21219675745750488,0.2656980227276809,-0.025384086366389766,-0.08708161802371091,0.13856001791867797,0.06116881651121351,0.013615975215236205,-0.05792923067038131
338,0.004357020742733268,-0.13793505341251036,-0.038949417135615026,0.02165299523164757,0.21198551143586328,0.31676934872250456,-0.02637550225482518,-0.08313306428914687,0.1385286448167175,0.04222310561612392,0.018754764387023354,-0.05606045147431579
339,0.004089392957094873,-0.15535424721085875,-0.03899657263405919,0.021611592193146966,0.21675331684708254,0.3371165954959579,-0.017034573861240646,-0.08243977746025329,0.1384935714465155,0.02107590827361195,0.02163932987773604,-0.05623152474824927
340,0.005935425074945133,-0.1564768689723049,-0.03886048583600692,0.02176088346616901,0.22104296232474568,0.3420551464224252,-0.017676076923961857,-0.07791162611226263,0.1387874960889909,-0.01748543548727443,0.02397440130271748,-0.056263945889799764
341,0.008653823099163575,-0.17018130983109767,-0.0390728044997484,0.0213595139820706,0.22069524563426077,0.36017169596402104,-0.01598532112386431,-0.07753820636119393,0.13680625220918083,-0.057203806282107104,0.026282803429489895,-0.05165857699259045
342,0.01141050581142062,-0.16839452495898818,-0.03449031414504102,0.025978408476008102,0.2207737644996507,0.36125209425463006,-0.012549942193570746,-0.07312179860090702,0.1337929804027099,-0.11863533152959323,0.025935729204609896,-0.05199690973528917
343,0.013193749483257222,-0.16903912483759276,-0.03387689554673014,0.025896172869074703,0.22089829182434814,0.37886919463986735,-0.013084826088680435,-0.07372906797381082,0.13427785424218242,-0.17633476720533733,0.025969016559410647,-0.05229223815238822
344,0.013022553221369505,-0.1683935957152195,-0.029802964744428877,0.026005216126987935,0.2203400562159184,0.3871898179984593,-0.012969082954459627,-0.07355275965608737,0.13418845154911777,-0.2197046165820276,0.025893431641400684,-0.049555976647258214
345,0.013051103915854772,-0.17224006218891574,-0.030426470191239282,0.02596506546196394,0.22461114497766077,0.3989458063837671,-0.012988986903116513,-0.07363206283606784,0.13419881090286623,-0.271472105367996,0.02683874386328094,-0.047318885709533375
346,0.01774125145124182,-0.17348212397927193,-0.030277644260071103,0.025976196984257058,0.22511889999109996,0.4054793605260495,-0.012987157755369405,-0.073496825804764,0.13418968305880163,-0.2813977465222999,0.03074361785943565,-0.04766342776541089
347,0.02533008641478725,-0.1742041489684829,-0.030307228238563636,0.02597343429749623,0.22512025072213226,0.4234998058652317,-0.012994212551634592,-0.07371422357483998,0.13429730610753504,-0.2813305594045827,0.030311189956526263,-0.047616469346947736
348,0.035523862996942615,-0.1956904918412605,-0.030302427311056073,0.025974594504190398,0.22515817782279476,0.43360935243924437,-0.012924563634242886,-0.06905944895670395,0.1333961959456329,-0.28647644244735765,0.02983734924674115,-0.04761938282093262
349,0.03684686070956967,-0.2016245504976727,-0.030302026716963488,0.025973294531585853,0.2247795461543489,0.45043091576144434,-0.01334332915779636,-0.06937057242224264,0.12508660769008698,-0.2949533661879749,0.033911272562803005,-0.047604907960579416
350,0.038866823487560466,-0.22765359929744503,-0.030316047430095666,0.025969440244493165,0.2272415467814682,0.47360529606099927,-0.010736077372883224,-0.06923065460055805,0.12062731830366946,-0.29500939998467174,0.03455863570285213,-0.04770843076884185
351,0.042550010766030974,-0.21158172449013551,-0.030218519314492195,0.026026055645509836,0.23022890616615557,0.47132065182570765,-0.008324177325911198,-0.06927250070321132,0.12130813552848752,-0.30308836116650684,0.03927547194220259,-0.047187607006529166
352,0.043344735374756825,-0.19502465439938352,-0.03072437967854934,0.025649713348414937,0.22584173822781745,0.5320418660590799,-0.008732335898603758,-0.06926228605321176,0.12120369477433177,-0.31049486617464933,0.04352925489571634,-0.050434913109438324
353,0.043302651070918574,-0.16238974603340714,-0.02756856896167771,0.028042195425531668,0.2250436737503755,0.6092208110150111,-0.00861337079248726,-0.06926437071396785,0.12121319086707925,-0.314614319311741,0.04334572226582157,-0.05216632535020132
354,0.043285787434873955,-0.16031319853227177,-0.025749389319803615,0.030659713496177972,0.22510024260805583,0.625126636098363,-0.008549080867856544,-0.06926403777531197,0.12117754561146381,-0.3237494714247468,0.04259046200579018,-0.05192525317461754
355,0.0432700260130144,-0.1532988603237198,-0.02598191089812557,0.030240944986640497,0.2251112339104226,0.6721856503411335,-0.003370514814257394,-0.069264066897563,0.12145190895426736,-0.3336415214114662,0.04820382541327372,-0.0519463410578567
356,0.04340202557174951,-0.1247985469724141,-0.025956451062260372,0.03031001714581468,0.225128300927391,0.6627415474393525,0.0005464728022521053,-0.06926407175252293,0.11957837752207223,-0.3431537768549883,0.05575139021238925,-0.0519497976475426
357,0.042815976139213605,-0.1062371865587619,-0.026525348490320122,0.030303217981267856,0.22499498565224346,0.6072580663868462,-0.0015662354721423313,-0.06926406785959485,0.11434394272267662,-0.35572741690358645,0.05639878589989808,-0.05194742978664199
358,0.046583959717999904,-0.10704160855438792,-0.030789871650887826,0.030305206036503697,0.2255948420335629,0.615134636033803,-0.007334556451136295,-0.0692640723264258,0.10907741342744122,-0.37275423699270394,0.056316601139406515,-0.051948211168536325
359,0.0476611785388459,-0.09694910596148304,-0.02998809724955846,0.030283833478101718,0.22179724156426647,0.585945160936643,-0.008620474496448816,-0.0692640569936873,0.1081298268290189,-0.39802365240080007,0.06091047839020265,-0.05194805843188481
360,0.047667754903647365,-0.0923467116717016,-0.03198869792437811,0.03040660470710287,0.22086888406242455,0.553547077218022,-0.011888215601826454,-0.06926411314160331,0.10822521562645322,-0.4279893768017614,0.06052640838682677,-0.051947897735577564
361,0.04312995736804281,-0.07356919367035736,-0.0412351481795503,0.02984538421085672,0.21657289341788225,0.5338691744993005,-0.021488374996061994,-0.06926395259649847,0.10821492726203655,-0.48073673852539067,0.06043322031611837,-0.05194848022176286
362,0.04250415449277321,-0.06713430380151578,-0.04648058190486935,0.033427206869826295,0.21204354034233439,0.5327071951566706,-0.026111197522792375,-0.06926413651348656,0.10834084236871849,-0.5277613749311236,0.06150652156842269,-0.05194780454931979
363,0.03845363228673986,-0.04347332414797283,-0.06049208363346088,0.0347877104643911,0.21124135203732272,0.4987616647682963,-0.025897465122107655,-0.06926598618073929,0.10728269006175908,-0.5199734619184125,0.054332855594964764,-0.05194099922268039
364,0.03911687807212297,-0.03696416644689556,-0.0652995462457511,0.03462381131482861,0.20758067252786352,0.4756204262976557,-0.026086299096255067,-0.06924733703900059,0.09871065301200325,-0.47876377317702895,0.05155852491510603,-0.05200961349479379
365,0.03881013105361526,-0.017076020424334013,-0.07072928943003151,0.03462779885734088,0.20603138142972072,0.4602719474610069,-0.02552919097476519,-0.06935985618072676,0.09471823201946862,-0.4693289679850953,0.05203811781174854,-0.05159563066893832
366,0.03937338779560184,0.012707428029563508,-0.07358519380439262,0.03463413784787392,0.20061694498888927,0.44230246413091806,-0.028866725706613635,-0.06882084033639557,0.09531517020126165,-0.440672884665147,0.04747647024456255,-0.054197432556959114
367,0.03497015444018612,0.018491245801469585,-0.07581249842683803,0.034631267717152324,0.19567349822795596,0.41186123232410604,-0.030506150053586967,-0.07221698905388277,0.09523335492036554,-0.412219971243484,0.04680744014251424,-0.0567209317771264
368,0.03465246415183896,0.020738216517396376,-0.07848687713603031,0.034632783394680317,0.19109253986870367,0.37774710626528946,-0.030287087439271047,-0.07380888890536236,0.09523617286410124,-0.3891243209010182,0.042816621865644985,-0.05584527230309695
369,0.03454493863245263,0.07191102820047139,-0.07715771583021161,0.03462964699691011,0.18156012298541044,0.352759905380814,-0.03031034429736555,-0.07353160265392197,0.09523990428516402,-0.37720890531726287,0.0432926283706444,-0.060390794602253384
370,0.035104882219145546,0.08467847369750361,-0.08630538812057369,0.03463969137931161,0.17620377059976944,0.3096005909722514,-0.03013950822041858,-0.07339659147789257,0.09523259566912222,-0.3627392186297261,0.04372861915806577,-0.06056113335789215
371,0.03152866582907444,0.12993437861379445,-0.08648855755098046,0.03461624258010174,0.16707203998614184,0.2794907594159083,-0.031562293477882246,-0.06887892271588016,0.0952631689487525,-0.3554119677738556,0.03970679294994429,-0.060680967523700925
372,0.022750434855693443,0.1493741493463601,-0.08642588983289134,0.03460391766441209,0.16240884395521105,0.2412521000278407,-0.034805879990484435,-0.06947058671845874,0.09513764011167494,-0.33847011018538053,0.03890389788445649,-0.060284020174163136
373,0.021510095070983865,0.1514300628604587,-0.08805477568246142,0.035214036679490045,0.1598356156729805,0.2268985476387902,-0.03657284785943656,-0.06881596214482125,0.09556399254463586,-0.30670433822924786,0.03894875320873089,-0.06261853528010707
374,0.02165116840233573,0.1841484780300376,-0.09131274707072548,0.03949583878677625,0.16023953951366415,0.20162721548974286,-0.04257976251006355,-0.07196143700868224,0.09137208681616266,-0.2999291176670718,0.03897433914975879,-0.06530230502567078
375,0.02166699954230793,0.19930425073144803,-0.0909533407550427,0.038408800086852914,0.16015682572301876,0.18651552253229206,-0.043041825908329695,-0.07386610756515971,0.08638397712318761,-0.26862019812063404,0.03892046413852108,-0.06486166161430551
376,0.02176911085650995,0.19469007449955297,-0.09049551368880922,0.04166577624863925,0.16017962646867184,0.17221038815647666,-0.047556237634834776,-0.07348664958038514,0.08197141412460926,-0.26124563140417406,0.03915046415859019,-0.06496361016263968
377,0.020084192634434492,0.19406355792007704,-0.09503694345846259,0.043087956591884476,0.16028060481516307,0.13377338349901763,-0.0478957481220906,-0.07355888985085486,0.08234905158628422,-0.23357736774488375,0.03717726879673313,-0.0649442233944503
378,0.012906273047122992,0.1902925497552522,-0.09538649926951445,0.04711325584489806,0.15907018092148692,0.09575896470552711,-0.05234731725279516,-0.06908802423163955,0.0822248884755051,-0.2216111582841622,0.02749066587781082,-0.0644059464151605
379,0.007775746051776401,0.18855263630990302,-0.09963179751875313,0.047594859407475855,0.1460435589657002,0.07176285063545983,-0.05206687622931526,-0.06830151386344371,0.082256501864451,-0.18215495875680796,0.02604117015142044,-0.06042878605978179
380,-0.003943843822189174,0.18540564494189277,-0.10191772601015012,0.052585410422074645,0.1374579573074884,0.049227388995619445,-0.05023158515813135,-0.06443844378890465,0.0822516582779222,-0.16381863606106023,0.02154978977712874,-0.05898828762973157
381,-0.0039095186121524865,0.18741135537597392,-0.11027946754623015,0.05657476906542778,0.1387669447537416,0.026040530566300686,-0.044414086188773017,-0.06505109088650311,0.0822469962561557,-0.1598033360261715,0.02230219896717959,-0.05584390368263774
382,-0.008212115491003218,0.17399586893310387,-0.11829821748522353,0.05618808249535458,0.13844093117843792,0.011720750656209724,-0.043136288810546895,-0.06491255301336406,0.08225199325957061,-0.1362734876038321,0.026387262946760918,-0.05636109783629705
383,-0.008639916599063643,0.17326966160070353,-0.12104129881681393,0.05629883101091745,0.13863447025029832,-0.008833439461190806,-0.04330555294281835,-0.06493834018214253,0.08233326304484408,-0.1032326393772477,0.025860859925104018,-0.056264831468624966
384,-0.013683677855496696,0.1728947334020956,-0.1255499366093174,0.05627258715339873,0.1338949797413409,-0.029759585142058446,-0.043290761901360136,-0.06493488368928459,0.08149389377066112,-0.07918497427855906,0.025999789151329753,-0.05627773008924858
385,-0.0171262382884651,0.16475196154908195,-0.11671401644055138,0.05627778023167349,0.12497245964725681,-0.03926284337366948,-0.04330039047362159,-0.06493497106064336,0.07578599908742355,-0.04678561452907191,0.025969061645213613,-0.05627737770333867
386,-0.02047856233795127,0.1529877756122239,-0.11258698187649678,0.05627698596311727,0.1162948993120591,-0.04647736846551009,-0.043209288981488674,-0.06493518630066082,0.07331428433044508,-0.043278370148980616,0.02597511041506091,-0.056276894795918166
387,-0.025954278620571605,0.14892944803661912,-0.11133580148737468,0.056277029371442785,0.10201088532514825,-0.06543377733849319,-0.043713664358222756,-0.06493457990966466,0.0735622886056279,-0.007443641947683075,0.02597378608882145,-0.056277114842990125
388,-0.03161530668282667,0.14450119768868122,-0.10843285915623256,0.056277317325499794,0.10478983532241783,-0.06925443547933012,-0.04065671164901221,-0.06493732102263348,0.07385190629746699,0.01192242990700185,0.02596639344067055,-0.05627700076771585
389,-0.03468811974017063,0.13479624191535267,-0.10375716281758865,0.056275370953457506,0.10055556519041657,-0.07202028343678071,-0.03913011366051117,-0.06492605033943696,0.06955636259091978,0.021093859377149384,0.026039530027463828,-0.05627723139282358
390,-0.038580029003482494,0.13414235470488897,-0.09580377197373303,0.05628557174774519,0.09969848874582385,-0.0738275407441491,-0.03524600540383529,-0.06496422217828295,0.06477415863250957,0.046759303952790224,0.02560184607666119,-0.05627649780391897
391,-0.038938895810779126,0.12383407702228147,-0.09517206476980125,0.05624110119628206,0.09540579175147168,-0.07355468859073816,-0.03460413316538413,-0.06487620189160594,0.06521272715319787,0.05647311495498033,0.02833259979671839,-0.056278182903422555
392,-0.03899064193559163,0.11570789229147614,-0.09524240697795854,0.05640284105296806,0.0904303195183592,-0.07355891252850201,-0.034615383582044704,-0.06481467390471118,0.06348108973742993,0.056393820404226934,0.030490264145207675,-0.0562793548114096
393,-0.03893045059464326,0.10829781816045839,-0.09532388143468319,0.0559601014143647,0.08625169740820661,-0.07420856737280611,-0.0346321643452074,-0.060270513018771864,0.0601705655589888,0.06128015747507783,0.0306241945724436,-0.05623470188344291
394,-0.03907386197031457,0.10453304604540647,-0.09443861741030599,0.060598135362797026,0.08668108505346682,-0.0783757610975153,-0.03467835107943415,-0.06064948932101369,0.060706793729006336,0.06742046983645035,0.026151268407830962,-0.05656894440988307
395,-0.03847307753822897,0.09449091010904338,-0.08920372673821231,0.06099358450620356,0.08655477678744661,-0.07779998179233079,-0.03440011615260963,-0.0609774438848161,0.06056110679597806,0.07630763033177398,0.026028893980784902,-0.054384748239309944
396,-0.042147983104975535,0.0901848872108986,-0.08381328105259506,0.06514516609955075,0.08658543012580695,-0.07794937933523727,-0.03556471870501725,-0.05802805829225987,0.06066944424040597,0.07812030686877876,0.02590753191826774,-0.0515648842136427
397,-0.04310533820737903,0.09521379173306437,-0.08248932395024093,0.06648090209955727,0.08657919832077257,-0.07791759680197848,-0.027717329059941575,-0.056019798036079524,0.06070861797201934,0.07788545056970682,0.026218337758216387,-0.052018894235948146
398,-0.047417166368794506,0.09518083098846859,-0.07855906445356046,0.06959146204433221,0.0865801379595953,-0.07792119856663822,-0.02579937210674714,-0.05629029149405422,0.06527594083337365,0.07792688799249231,0.024319272183048534,-0.051938635957426274
399,-0.04751154649252189,0.09526073914080005,-0.07798261586276051,0.06963505517712375,0.08658003025405238,-0.07792267107658404,-0.025962942893342132,-0.056284888392415675,0.06481228538586296,0.07792198908549737,0.01836455339488473,-0.05194827013005979
400,-0.048368298612723765,0.09523881467553168,-0.07317394688629827,0.06564963271202738,0.08658155533951978,-0.07794982084359496,-0.02598669022633747,-0.05667274485787283,0.06497561788253974,0.07792192439263688,0.01756788945180324,-0.051950479660446254
401,-0.05240533612126697,0.09520498765061522,-0.06831518622954984,0.06488361800483344,0.0865695482095951,-0.07768743714442436,-0.025969402258885388,-0.061097705178011476,0.06489442472041972,0.07792182726143798,0.013315010626452213,-0.051930529971607
402,-0.05179993276619773,0.09536851964556117,-0.06348814098178165,0.0649223259033887,0.08663566186079608,-0.07951338420154992,-0.02597534164166353,-0.06011642990060994,0.06505491330074264,0.07792393302173767,0.013005948845873775,-0.05204627354530946
403,-0.05209900769953288,0.0948623211098896,-0.05788286581002025,0.06494256195485754,0.0863366041931912,-0.08282451010262538,-0.02597355016525586,-0.06295025956374546,0.06462613731496479,0.0779134626046377,0.013126451295706592,-0.051497605984493024
404,-0.05150545570421425,0.09947177674087292,-0.056936096310848956,0.06493262990058742,0.08747580373943462,-0.08157276428254062,-0.025974749019405368,-0.06524320207005736,0.0692304323624647,0.07795521662142389,0.01171322602774121,-0.054949932668228854
405,-0.05578665673768099,0.09979897076867773,-0.04934205372637834,0.0649356939764075,0.079147499621724,-0.08628071526442647,-0.025972132705210024,-0.06488720795731082,0.06919140340630706,0.07782159618932814,0.00852478950041289,-0.056432241635381866
406,-0.05628851547694104,0.1044934940405506,-0.047439015233716325,0.064934928455838,0.07783194359878222,-0.08245720343562661,-0.02597612715890217,-0.06493876171967475,0.0692947719776439,0.07808062002577407,0.006501157706784779,-0.0563054750739997
407,-0.056295443913836646,0.10258504153577956,-0.04753406170065825,0.06493508896844949,0.07759777830573533,-0.08209290588765857,-0.025996225644119034,-0.06493592716543542,0.0692551030687055,0.07342261199070461,0.0012211627593369044,-0.05648965856579425
408,-0.05626895180558326,0.09694353595168975,-0.041650655885730255,0.06493506211512066,0.07320802979810441,-0.0775066182109031,-0.025752339465282086,-0.06493454380173713,0.06926621825569128,0.07369503059860928,-0.00394297941219646,-0.06098865315520213
409,-0.05627996757007282,0.09499238438510126,-0.03375202606116731,0.06493506486402932,0.07371301657556399,-0.07805709028749215,-0.027507036498710283,-0.06493526518513168,0.06926364040239791,0.07356060971777442,-0.004331627103797748,-0.060483502404521175
410,-0.056274082917160295,0.09527692592015002,-0.03525594628217821,0.06493506509616159,0.07356276195260751,-0.07788833145342029,-0.03034255068344378,-0.06493486232208187,0.06926413486292264,0.07359788365633575,-0.00437872110716784,-0.06062793812110176
411,-0.056286616253045985,0.09523492409351236,-0.031917885411084236,0.06493506487336527,0.0735995358649255,-0.07792482081174781,-0.032879714427657664,-0.06493573115863184,0.06926406455661867,0.07360675572685194,-0.004052848236775725,-0.06064157438145173
412,-0.056246345136574796,0.09523750633530056,-0.030065891916953007,0.06493506495242894,0.07359196011526048,-0.07793701705104993,-0.035289700438807796,-0.06493284287723886,0.06926406804393438,0.07354087385438485,-0.006118782985663434,-0.06046369534513806
413,-0.05634249759571266,0.09523797862247788,-0.030331146506715718,0.0649350649310028,0.07359319729754425,-0.07788483268001854,-0.03062552922745385,-0.06494017179525227,0.06926406898838294,0.07371383555865849,-0.008622773860292667,-0.060936143138303256
414,-0.05636438968830091,0.09524125050459689,-0.030303630206055716,0.0649350649358561,0.07359307917463248,-0.0778954084624343,-0.030313410936168076,-0.0649387074013394,0.06926407537778687,0.07367928276915683,-0.011615520297133216,-0.05627997295978562
415,-0.06082729353226704,0.09522190758905241,-0.030301493549049697,0.06493506493494872,0.07359307275575004,-0.07896111421811562,-0.030420018534294848,-0.06479740914640533,0.06926403831003143,0.08340393596941068,-0.013258342848690373,-0.06100637753654856
416,-0.061333189243895705,0.09530450880239895,-0.03030352326461241,0.06493506493507176,0.0735930229990771,-0.08746856780965943,-0.029197094671410146,-0.06606449730389545,0.06926419571696979,0.086772084310554,-0.01286112954594522,-0.060455129057260026
417,-0.06718936508271091,0.09501851092523228,-0.030303401626503506,0.06493506493506783,0.07359335855254712,-0.08633233087090049,-0.02550919188951717,-0.06962260817891397,0.06926364987524991,0.08659856572012493,-0.01752406126170518,-0.06064814833267412
418,-0.06955291045616907,0.0957009203495239,-0.030300701375787716,0.06493506493506344,0.07359181145630635,-0.08663749674768416,-0.026082397770875176,-0.06961504579782962,0.06926497795072085,0.08625805237537304,-0.017210363504313313,-0.06059630799075837
419,-0.06920702595286043,0.08638750154695111,-0.03031167103001122,0.0649350649350654,0.07359776084578618,-0.08656906044610588,-0.025952915092965188,-0.06614901533283284,0.06926527041064319,0.08926094891769329,-0.01734879487606498,-0.06060793372258034
420,-0.06927277308944296,0.08691015114930291,-0.030279479957618,0.0649350649350648,0.07357957247901023,-0.0865816579733781,-0.025977143121397265,-0.06477964349807587,0.0692350904159409,0.09480038500338006,-0.017307840776776006,-0.060605793546197044
421,-0.06926343517921325,0.08536558567467752,-0.03031996628480801,0.06493506493506496,0.07360993094337158,-0.08658001158522044,-0.02597383592229313,-0.06494254771436762,0.06947109499103041,0.09525813514223196,-0.01731771877094794,-0.060606073463681895
422,-0.0692638964740473,0.0814067887046126,-0.03067184123465729,0.06493506493506493,0.07373669824845829,-0.08658005011191608,-0.02597395046111149,-0.06493955653978065,0.06781403235711683,0.09525012433919083,-0.017315738334581693,-0.060606068323958324
423,-0.0692641690977437,0.08497170597620937,-0.03505346142470731,0.06493506493506493,0.07199830824789306,-0.08658002204360148,-0.025974065282929268,-0.06493291681829698,0.06200415665189503,0.09523234258320112,-0.017316043609961633,-0.06060605691499901
424,-0.06926403666353091,0.08681585846727455,-0.03450715776230252,0.06493506493506493,0.0640055946127466,-0.08658059109875743,-0.025974013566457618,-0.0649357223164073,0.06040520968699112,0.09523985404339445,-0.017316020562953234,-0.0606060617354193
425,-0.06926407779836347,0.08655127016122242,-0.03466159308788438,0.06493506493506493,0.06517195008442381,-0.086577668691059,-0.02597402913622416,-0.06493489891158855,0.060638834144286974,0.09523765889677076,-0.017316014808526178,-0.06060606032180725
426,-0.06926406736891935,0.0865798137701511,-0.034628369352711526,0.06493506493506496,0.06488413111373349,-0.08658968537007596,-0.02597402529410347,-0.06493511109571228,0.06060197659450904,0.09523818596440542,-0.017316018172453457,-0.06060606068131592
427,-0.06926406961337947,0.08658153972579466,-0.03462579791572784,0.06493506493506482,0.06494395449303646,-0.08654944009321176,-0.025974026092703925,-0.06493502007705632,0.060502867959373215,0.09523808013427143,-0.01731601708971052,-0.06060606054195075
428,-0.06926406921635138,0.08657951910950648,-0.03464259960739219,0.06493506493506537,0.06493404204696092,-0.08663930721343502,-0.02597402596034712,-0.06493514139824177,0.061565636300681056,0.09523809705553112,-0.01731601736585512,-0.06060606071238508
429,-0.0692640692658123,0.08658024603133384,-0.03469586238621733,0.0649350649350633,0.06493503302846008,-0.08673001560356029,-0.025974025973583392,-0.06493525664795342,0.06537541423888715,0.09523809639743185,-0.01731601730710841,-0.060606060872223935
430,-0.06926406929430735,0.08658004972217068,-0.03385219664944323,0.06493506493506938,0.06493507779720195,-0.09109943849382379,-0.025974025974842826,-0.06493191694752115,0.06494233935369287,0.0952380787959548,-0.01731601731710263,-0.060606056235893095
431,-0.06926406902026051,0.08658009356724347,-0.029837723613605947,0.0649350649350613,0.06493540656658164,-0.09203758120412378,-0.025974025973763595,-0.06495634583994592,0.06449560724645625,0.09523820554022008,-0.01731601731603526,-0.06060609014899484
432,-0.0692640706531104,0.08658008563774433,-0.030422998142806097,0.06493506493500062,0.06493310502056883,-0.09572520715849345,-0.025974025973841075,-0.06482633523664816,0.06854329315952452,0.09523753189683155,-0.017316017315725525,-0.06060590966352471
433,-0.06926406278716402,0.08658008659836945,-0.03026922787137526,0.06493506493565485,0.06494381988476265,-0.09512945939023658,-0.02597402597522112,-0.06539712633012186,0.06931600657775863,0.09524048918310757,-0.01731601731785918,-0.06060670205654809
434,-0.06926409490662265,0.08658008629150554,-0.030336398672538376,0.06493506493162277,0.06490225157159275,-0.0952579028462009,-0.025974025969473773,-0.06166830273172593,0.06927223794645672,0.09522967406313211,-0.017316017306117,-0.06060380417470372
435,-0.06926398611239924,0.086580089454458,-0.030243323548786033,0.06493506495122063,0.06503120003439113,-0.09523566329224345,-0.025974025987374017,-0.060461784802148644,0.0693083874489664,0.09525948828004839,-0.017316017360011256,-0.06061179281487867
436,-0.06926424490647168,0.08658006992691836,-0.030180886903117158,0.0649350648713662,0.0648029685633352,-0.09523809718824734,-0.025974025955684033,-0.060611178562465895,0.06893881393999884,0.09523401369295094,-0.017316017153398828,-0.06060496696686778
437,-0.06926432019203473,0.08658016355026542,-0.02562005913503802,0.06493506513711583,0.06945402258570507,-0.09523604362607806,-0.025974025846314686,-0.061032406836881804,0.07135402396762111,0.09480906830646987,-0.017316017771352183,-0.06049363499581248
438,-0.06925837141555517,0.08657979119625839,-0.026117623781539437,0.06493506455067666,0.06916377699922183,-0.09525577936853011,-0.02597402738184056,-0.06542987620222722,0.07382420749105656,0.09047825130057319,-0.017316016880922228,-0.06160824774860047
439,-0.0693046426555904,0.08658096676411571,-0.02583187546174565,0.06493506390625103,0.06927412896871551,-0.095139069741716,-0.025974017254185553,-0.06444128762266021,0.07395257293329274,0.09103376159086704,-0.017316011232506312,-0.06540083609342122
440,-0.06904971632653016,0.08657885939599923,-0.026446206937664356,0.06493508132337186,0.06936900454780186,-0.09568867029991764,-0.02597406857018266,-0.06731152650629013,0.06962900129455925,0.09087989945644381,-0.01731607510593884,-0.06482387421978515
441,-0.07020932212243042,0.08657151795710182,-0.022668040349184924,0.06493495468237254,0.06879934769537878,-0.09221400929907177,-0.02597385085843323,-0.06956648968582936,0.06927640878351259,0.09091272880915667,-0.017315677027519714,-0.06495720136083905
442,-0.06297776471871921,0.08667468170551319,-0.021530440824143307,0.06493562752294602,0.07263450916608469,-0.09073340416576403,-0.02597462035464982,-0.0692178925064597,0.06938239121789921,0.09091503190646506,-0.01731761671082636,-0.06493168504492464
443,-0.06062872122281196,0.0857950919493358,-0.021643930643654517,0.06493267231813465,0.07369861534021724,-0.09092166591857012,-0.02597262209400724,-0.0692673780800122,0.06812506559611527,0.09089911536983654,-0.01730974318249281,-0.0649353069254034
444,-0.05646928451393961,0.07749880695867854,-0.02165068880847788,0.06494351220562841,0.07359508843334057,-0.0909126263434933,-0.025973458797697867,-0.06926502181531118,0.06447227911941159,0.09084803746689166,-0.017335561555583415,-0.06493513339861395
445,-0.056331853401032625,0.07300688179665199,-0.0216437456215713,0.06491332495922943,0.07358726924385404,-0.09090709341959073,-0.02600816569203267,-0.06926327609218563,0.06504090092384027,0.09165141309698242,-0.017282044546778324,-0.06493502135049684
446,-0.05624584593431787,0.07368893205209892,-0.021640255854037525,0.06494201296266834,0.07359533072765947,-0.09090973194111608,-0.025712417367150707,-0.06926591313908997,0.06491526557124105,0.09585002813653304,-0.017184686059109403,-0.06493510948394132
447,-0.05628721161896492,0.07358396097817019,-0.021668916531717906,0.06534582047377048,0.07359243215294015,-0.0909089261071729,-0.02769535305281949,-0.06925583407353232,0.06493735044492509,0.09439599340403025,-0.011831913491559171,-0.06493490424035456
448,-0.05627440075727242,0.07359109993536773,-0.02155634338752059,0.06969128916972217,0.07359322251424603,-0.09090912940270264,-0.030624951129191613,-0.06929758776700452,0.06493528842643868,0.10026695125318269,-0.008802762607457156,-0.06493571001925857
449,-0.05627765620616839,0.07360614867956779,-0.021891447564605714,0.06913862472660055,0.07359305556563793,-0.09090907374664534,-0.030558032558210754,-0.06915210706380917,0.0649418894258173,0.10795364588894754,-0.005426297555593675,-0.06493291173405108
450,-0.05627690605030309,0.07351156065500165,-0.017482970847023806,0.06929648536510784,0.07359304191568525,-0.09090911627245297,-0.027030851749727976,-0.06951339482166144,0.06487319340794451,0.10783777104583964,0.005714765729180926,-0.06493985965709714
451,-0.056277179428837504,0.07400253866636211,-0.012809512865992407,0.06924911012327122,0.07359312741146148,-0.09090911627700336,-0.021778345248385202,-0.06487185932264848,0.0652924072906471,0.11708027634779093,0.012383996634976703,-0.06493998540284678
452,-0.056277012295728734,0.07091852910939796,-0.013070502438936751,0.06929212945845808,0.0735933842052417,-0.0909083631970458,-0.021698070649084508,-0.0650220750144258,0.06266193828092763,0.12135989571743627,0.016016087871378638,-0.06479374347439022
453,-0.05627513800152927,0.06891384252383433,-0.012952138546857528,0.06921967635420383,0.07358944647372638,-0.09091438987226909,-0.021446791776636102,-0.06490294665640058,0.06028534053823294,0.12115757228890046,0.03487800660612624,-0.06607490630960813
454,-0.05629332039617138,0.06954848862798867,-0.013041271850322842,0.06906161198274097,0.07361589238676437,-0.09088099226706811,-0.033247619317401375,-0.0649439324400232,0.060656581046472834,0.12122718421330927,0.03935373055263649,-0.06972703980308056
455,-0.056184403005589446,0.06487713197754434,-0.012798109626522221,0.06455921120936961,0.07348058305887777,-0.09103210811925679,-0.06379765300107997,-0.0649330269545099,0.06060193713445007,0.12120864779034905,0.044875004796965844,-0.0691492424758302
456,-0.056708252468045055,0.06501823026830057,-0.013561078749470929,0.06505873916541917,0.07405930287276673,-0.09046023680410906,-0.09809451293258989,-0.0649354523204792,0.060605234491066216,0.12121282363617615,0.04795525272039605,-0.06931664650463155
457,-0.05343586772414029,0.06492354814266332,-0.012072331995096858,0.06490287217358401,0.07025157090361249,-0.09467175636917526,-0.11957543166340473,-0.06493501085348677,0.06060658097035255,0.12121190695873062,0.04754499166450067,-0.0691720339637782
458,-0.05162669172547008,0.06483718866297399,-0.040283040023894906,0.06494208982105178,0.06915238783219399,-0.09526185930053342,-0.19535094209586532,-0.06493506713714993,0.06060588941588125,0.12121222865256948,0.047622419146267726,-0.06933977464190637
459,-0.052201027822802434,0.06539542395053705,-0.04974219540575717,0.06493385406209937,0.06926328182572923,-0.09528144647306452,-0.24266129950546775,-0.06493506664906758,0.060606105720515606,0.12121385889734465,0.04764714982025049,-0.06470086801931031
460,-0.04754471583050244,0.061701476449916935,-0.07457243494151543,0.06493511607353795,0.06927029750610357,-0.09498902575926557,-0.33996051758380896,-0.06493506414744904,0.06060604768468054,0.12119607286147753,0.04759929290524129,-0.06498599057138048
461,-0.047549872460128415,0.06047724754533189,-0.1106683337428177,0.06493503691017642,0.0692569973391119,-0.09688220742618703,-0.4106119122146073,-0.06493506515984124,0.060606073530317356,0.12130593702269618,0.04113698783503287,-0.06525227042591339
462,-0.048799049709735476,0.06060765945169026,-0.14311164218987188,0.06493741271369008,0.06929134911406941,-0.09952239360458824,-0.531773952584453,-0.06493506494110125,0.06060603458663958,0.12077190577019441,0.002943519696253309,-0.06271526608625178
463,-0.05200398046426523,0.06061141179297142,-0.21379956730533234,0.06491684793794801,0.06914334717879567,-0.10251429211649225,-0.6477852790542685,-0.06493506469255446,0.06060604131587278,0.12412004729297402,-0.06100841545398754,-0.06027502078242721
464,-0.05440116272929194,0.06060440101621899,-0.2742688242456434,0.06503448398894492,0.06972407062900485,-0.10371719255528354,-0.7173600826993767,-0.06493506573500336,0.06060676493590674,0.12574915053548363,-0.12257848625466296,-0.06065980230473741
465,-0.05613855250782731,0.060603491604017526,-0.3796040923412776,0.06448958168633354,0.06564449229432837,-0.10795156574313591,-0.7478776238849633,-0.06493506345862554,0.06060082805504789,0.12550643139473813,-0.2608305681365449,-0.060600925256168205
466,-0.05990794134537437,0.060620417224595415,-0.4666146411869727,0.06797271214362927,0.06487884011060492,-0.1081862779412014,-0.7686172848891992,-0.06493506038614118,0.06063403539578778,0.1254873516002319,-0.334347469623518,-0.06060454360510338
467,-0.06065289925499759,0.06055175914212291,-0.5890916217658269,0.06952678176999962,0.06490896092254574,-0.10825618051242504,-0.7974986037154567,-0.06493513270797503,0.060483024029523276,0.1263349885543284,-0.458423387277938,-0.06061883217730604
468,-0.060620144533317565,0.06076083212016297,-0.6511029203483292,0.06912673150255551,0.06512090647218906,-0.10819536191957803,-0.8007756356794921,-0.06493461512052653,0.06105627733459661,0.12949789943484918,-0.47429355836374887,-0.060524463460539836
469,-0.06059814982127914,0.05659357713988367,-0.7115516701070016,0.07378755179100634,0.0636306404355145,-0.10833004655776284,-0.80089971888934,-0.06493734075004484,0.056844799725310986,0.13521003727412717,-0.5591281018090765,-0.06101807934616086
470,-0.060608625431828156,0.04730662007943631,-0.7438020475299056,0.07348987781412604,0.060045821842960354,-0.10779283504681626,-0.8008359665054041,-0.06492547267564966,0.056254850295448466,0.14665191325855734,-0.5983360354343096,-0.05795832399925363
471,-0.06060539130834322,0.046927735504306615,-0.7637950749971318,0.0736240869911539,0.06116842410533267,-0.1114131544532677,-0.8009599507852995,-0.06496845126418221,0.05625966639323321,0.14723008381657376,-0.61071731060901,-0.0560255378745781
472,-0.060606211757622194,0.042764838684084,-0.7662347834392357,0.07359308454121098,0.057284382480034875,-0.11296038764977198,-0.8005447542982225,-0.06485235197464086,0.056285046812505186,0.14718207335086386,-0.6183947778564132,-0.05630802747525406
473,-0.060606022001118615,0.04342079526988561,-0.7709675194168119,0.07356098606189554,0.05614070396285091,-0.10822310506014515,-0.804464565780606,-0.0649327068028621,0.05627465040369069,0.14718618181369675,-0.6240791942308788,-0.05627708716434988
474,-0.06060609368199871,0.04325534347605755,-0.7704097394183231,0.07370524245518975,0.05627928138065699,-0.10827214047096957,-0.8138160403122655,-0.06043395581338321,0.05627764567629963,0.14715480304302586,-0.6233580703097564,-0.056284062881427385
475,-0.06060605016442586,0.04332055281505684,-0.770555070428109,0.07334543590181944,0.05671445381983324,-0.10839716743901404,-0.8324218903851931,-0.05969227452589433,0.05627693572137045,0.14743789689017084,-0.6234572918547667,-0.056209896079791606
476,-0.060605528466336656,0.04324666953393433,-0.7715149129614253,0.07798640605726102,0.06103370464833368,-0.10683227625732145,-0.8543145805340021,-0.055770850491926746,0.05627707553273349,0.14550451246887894,-0.628203065254783,-0.05665096523672888
477,-0.0606105363842066,0.04308495676588355,-0.7848400754527101,0.07791315432178172,0.06048179688473521,-0.10149333402663832,-0.9075519667524661,-0.05643004712102515,0.056277054618492334,0.14241134139111966,-0.6264901968970085,-0.05390002199489616
478,-0.06058064202862739,0.038436684883540156,-0.7873479143411087,0.07738656923309464,0.06063598099217257,-0.09652967437000898,-0.9160674550725697,-0.05612175115129479,0.05627705599452617,0.14306973921415456,-0.6349443429558568,-0.05163637428417774
479,-0.06072410902535735,0.029882896806412294,-0.8004441711523491,0.08160301171028661,0.060600008748918834,-0.09207793685351208,-1.004947814240897,-0.05666834121242137,0.05627705646649525,0.14245856500532766,-0.6486140605413983,-0.052020655425952134
480,-0.06014061859438179,0.021572653791303693,-0.8112019593577664,0.08700581591748499,0.060607007797856806,-0.08263193960518078,-1.1354567664062045,-0.05206633407174333,0.0562770562139992,0.14706658625360736,-0.6559302260859923,-0.051908345145520035
