,I,aVR,V1,V4,II,aVL,V2,V5,III,aVF,V3,V6
0,-0.06666666666666667,0.04,0.0,-0.04,-0.06666666666666667,0.04,0.0,0.02666666666666667,0.13513513513513514,-0.04054054054054054,0.0,-0.20270270270270271
1,-0.07663992865548953,0.02701704334254423,-0.007968575649577158,-0.03404003150000798,-0.05156242646470617,0.038032887609010246,-0.008059643919165952,0.028373342259194596,0.1425974145132577,-0.04785079129289733,-0.004219358775737715,-0.20362599021341193
2,-0.08024900462595645,0.017574859592873474,-0.005005912603792347,-0.02894438600746992,-0.043070051432122454,0.03890216766262537,-0.005025536116419418,0.02706044740752482,0.1541917193031613,-0.04518659644731144,-0.0026216121205853795,-0.19587202175224128
3,-0.07899760772266884,0.010700016463390062,0.004505501877427991,-0.025432966858004162,-0.038277705213818895,0.0408133121305333,0.004612382502060595,0.027171889130877164,0.1673476077227121,-0.03629086335994884,0.0023939702712022126,-0.18366460700500487
4,-0.07438945109022822,0.00541908166649634,0.016183180534157432,-0.024225677387229003,-0.03427355145469891,0.041971792982421874,0.016364171030095083,0.03315157444847143,0.17949463798977608,-0.024906499386975468,0.008428118705370266,-0.17122755565751688
5,-0.06792824787323613,0.0007586229145946505,0.025644636106469526,-0.026042420930762766,-0.028145753799665878,0.04058308218797899,0.025739888561505043,0.04944341037952742,0.18806236832221926,-0.014776411884557278,0.013081563487663986,-0.16278467739559152
6,-0.061133476943545574,-0.004138177790797797,0.029262331964024942,-0.031178171990191832,-0.01776044795240505,0.03545392448627485,0.02908769630637948,0.08015806188139764,0.19098627359210354,-0.008826678797677366,0.014455738461539467,-0.16037896640682395
7,-0.055634829964003416,-0.009366184628366218,0.02834155334881832,-0.03715143444167306,-0.006240738170918452,0.029319760549344247,0.02805268001995397,0.1272288015533943,0.19012674861443807,-0.004646242333512796,0.01381659502417583,-0.15271719378184406
8,-0.053098835143828224,-0.01471451541579107,0.02616062648183273,-0.040388579301737726,0.0011370389874496604,0.026463667322946836,0.026327226343785214,0.1917400160220831,0.18917246938297316,0.0022916794307141705,0.013644436032911005,-0.123529174230846
9,-0.05360756535607525,-0.019999140237416994,0.025116885818961553,-0.03986676148051322,0.002109392831706517,0.02781304976687758,0.026049719319476018,0.27762472831414353,0.18999512733372567,0.013435507443979651,0.014647527099538184,-0.061792022308542326
10,-0.053956065863417946,-0.025088581698879443,0.025924824138307715,-0.03941185240313165,0.00040432291733679543,0.02791603724725871,0.026525392685573038,0.3942289553800557,0.19012192207765882,0.024377996089904406,0.014308078200725856,0.03436567778538133
11,-0.05083760953470613,-0.029900807040420137,0.029045062128640765,-0.04292844815966615,9.75199932917964e-05,0.02125835130332754,0.02683124437921829,0.5498338704963224,0.18667191125174606,0.030644254025337905,0.010167850570945757,0.16517837116259368
12,-0.04495827240154259,-0.03484056960097342,0.034203083329879626,-0.049146678504953,0.0009341975364213855,0.009593492176223179,0.026787559062981803,0.7340655434694875,0.18054145853509698,0.03431488471864367,0.003924658399313179,0.32395343218068257
13,-0.03984156673203856,-0.04061702969894784,0.040663641553875855,-0.05355667279310443,-0.00021210595524802367,-0.000774145405503668,0.026654236425434595,0.9248582370947709,0.17577348251374256,0.041575153225051384,-0.00026771821316115026,0.5001014769744531
14,-0.0381035117195872,-0.04718765772618703,0.04736153334956809,-0.05360196793953595,-0.005124690730012025,-0.006049139941185997,0.026618355441209225,1.0915365509537385,0.1752524378216997,0.056032008926789674,-0.0002437029758434906,0.6708640033764172
15,-0.038969069608652464,-0.05224333370815355,0.052264006359274896,-0.05272907714429393,-0.011065491057621207,-0.01016428249008777,0.026649164376644455,1.1781633635268127,0.1762454858005511,0.0733769487374969,0.0005599467097217679,0.7823253141007981
16,-0.04091038697631397,-0.053242572289280796,0.05332213190934092,-0.05529842035609717,-0.014492368620590898,-0.018236955745385065,0.026680530870402588,1.1263263217200272,0.17450952631168448,0.08802074688612979,-0.0020280389211323486,0.7784066813636268
17,-0.042136784435170556,-0.05170117611188457,0.05198785501737852,-0.061285382647615856,-0.014600821020623768,-0.029910391731289863,0.026684622781492365,0.9252732399670379,0.1689705432217831,0.09854410375527467,-0.007947542209003199,0.6479266614714605
18,-0.04055989183039851,-0.05302099476012624,0.05306623724309389,-0.0664653880882962,-0.013437161840126716,-0.03958471267122303,0.026667357591785124,0.6099005650798851,0.16319244053159382,0.10752165084246254,-0.013409805594874317,0.41610671996862786
19,-0.034867087348390564,-0.061244243057663,0.06033280032323578,-0.06755060488086968,-0.012864284305378138,-0.04277662578438453,0.02664085265216735,0.22175891175010345,0.1606755029669917,0.1172549738591316,-0.015372112434590348,0.11563908508633602
20,-0.02857400985350818,-0.07306222833938049,0.07191683357659998,-0.06661442092278465,-0.013025074408921767,-0.041439476907793246,0.026639094967623882,-0.17422575790474235,0.16112569036853683,0.12794326299070669,-0.014579095270543834,-0.19587842345300274
21,-0.026980742259511303,-0.08300194224908539,0.08426571065339071,-0.06731742068208775,-0.013481173466745303,-0.039442271348838195,0.02669982620346586,-0.5066859712358701,0.1622825598148105,0.13914517088412592,-0.012799445793302137,-0.455837695236488
22,-0.03184871968498446,-0.0887275793419735,0.0952324158211663,-0.07148007705052277,-0.013799101555829684,-0.03896388267595643,0.026775385905260032,-0.7369249600788637,0.1625761995269068,0.1502081327057262,-0.011723458623678774,-0.6334619650267215
23,-0.038421487373086954,-0.09248952174398208,0.10472498271198012,-0.07823275484595311,-0.013554118638764451,-0.039712189819000335,0.026706569485017578,-0.8740011922471934,0.1623084327882638,0.16017106167377354,-0.012939009865213843,-0.7351731902981805
24,-0.04166615241791967,-0.09667859903241735,0.11270359851661066,-0.08626477295037879,-0.012485946414640955,-0.041085758482239554,0.026400310057470275,-0.9313636677989308,0.16206805814403916,0.16809855793638329,-0.017569747470864504,-0.7712827048251882
25,-0.04127840650676171,-0.10189448198077382,0.11823938813737978,-0.09243978639718294,-0.011875019734309804,-0.04157453075698169,0.026269924277019654,-0.9272919805403008,0.16206392032972097,0.17345748176441245,-0.0235950928679455,-0.7626510279740149
26,-0.03990980048132387,-0.10787402169867814,0.11997850740148784,-0.09275241132271092,-0.013844631086000177,-0.039238362298468416,0.026934150999819034,-0.8823605882844907,0.16215567653134855,0.1759113853021229,-0.027686728042721296,-0.7338428099712935
27,-0.03952395263952547,-0.11399183118820595,0.11714163942950026,-0.08520482278619777,-0.01914597664805031,-0.03369144079641178,0.028082215417562117,-0.8107903457409638,0.16221092529309514,0.17587213366664026,-0.028285714433704753,-0.69664958761115
28,-0.03982230881715676,-0.1188135302006143,0.11025847109084291,-0.07236432558155978,-0.024885375968715484,-0.02807895318041076,0.02758381604922392,-0.7123607801332026,0.16220216928142062,0.17544571469975687,-0.027302891787982564,-0.641225645562956
29,-0.04009108224469772,-0.12092190490809392,0.10013399954865383,-0.056787495689352624,-0.027747063830733904,-0.025767095770534702,0.023421461506022617,-0.5861060911138278,0.16213540353662403,0.17671588476965944,-0.02687555780126043,-0.5582133539997541
30,-0.040078947104844616,-0.12072486260251591,0.08891896670434926,-0.031953595861424815,-0.027518231359877795,-0.026353466598371338,0.01726617222428024,-0.4487227037813791,0.16206219402346478,0.17813894945980313,-0.027139448338265346,-0.4622463414662577
31,-0.04000207164034083,-0.11998569858918345,0.07976347219138365,0.015399082420451134,-0.02667489315333966,-0.026636978952020197,0.013132637057437016,-0.3300233822167049,0.1621078158170792,0.17547738929578763,-0.02695833571057602,-0.3809583271409984
32,-0.04004171900663902,-0.11998979844483242,0.07450583847962262,0.09293679883513581,-0.02706786379036312,-0.023973938135557947,0.013195741585633544,-0.2508262566012003,0.1623646060341322,0.1662177293094239,-0.025937394451522464,-0.33030115337944027
33,-0.04008242533666823,-0.12017482618937005,0.07014630805835756,0.18747600437799555,-0.027412120086904825,-0.017980222183302585,0.014001313933909817,-0.19823781859318604,0.1625292710220158,0.15432359700985412,-0.02596591760847749,-0.2967590994547974
34,-0.03991446159954812,-0.11960813737127142,0.06271324617370773,0.2820005410826556,-0.025595331606138784,-0.008823849269769868,0.011259931245287812,-0.15220539103378147,0.16207167570807612,0.14509068740406544,-0.02922527529506616,-0.26329053669011454
35,-0.03962557267304644,-0.11875230847349552,0.0518225429765748,0.38529814437699067,-0.020931667501788653,0.0021462292935542993,0.0051656087754273945,-0.10641674579263641,0.16102293035280615,0.13991152799815842,-0.035102250363747804,-0.2282895852702699
36,-0.03979014240194705,-0.11964940368260252,0.04115141778331099,0.5353683621795856,-0.014673190701275714,0.012244163269345253,0.0001495742904973566,-0.07011480428319036,0.1610786412727666,0.13575998763251668,-0.04034251413444108,-0.2023322115816088
37,-0.04084671499135729,-0.123874192632639,0.033924720429424494,0.7565314800556278,-0.008195138272870066,0.019220980491506143,-0.0004783789062259376,-0.051107861593117206,0.16414109898919946,0.130053909517236,-0.042291600291953356,-0.19239781395997352
38,-0.041503818586388394,-0.12974519075933028,0.029411479030022863,0.9831889623857313,-0.002759106124901352,0.023827655469187345,0.0005414544780098533,-0.04380995502473595,0.16978103325600666,0.12423085458037246,-0.04160025457234513,-0.19069493306764615
39,-0.039510638907396055,-0.13440372138923812,0.025445616709268662,1.1174063812938566,0.0004290765317110793,0.02790326612775006,-0.0012333836901282122,-0.037802683081378324,0.1752056507634649,0.12116944061162994,-0.039889234446767195,-0.1862158955411735
40,-0.03406663683271471,-0.13599084834396905,0.020659521282430215,1.1030913061975793,0.000979469734149654,0.03266255839293698,-0.006837995861838697,-0.027595663478630822,0.17790597374777786,0.12150535662177891,-0.03877976310007422,-0.17545160521152328
41,-0.02834049871404054,-0.1343855045590768,0.015074832778377524,0.9568428191923941,0.00026591162939239993,0.038234087176937444,-0.01253061360604289,-0.016262509491725016,0.17756125298699998,0.12197843009622882,-0.03989353736235825,-0.1634232996347528
42,-0.025966705771018943,-0.12979632556610263,0.00893423788399858,0.7021086391184296,-0.00019652571149150506,0.04452135076199211,-0.014767752063070965,-0.007462388002820689,0.17461753710387856,0.11929268582048681,-0.04443368893797012,-0.15486333208979422
43,-0.02669170909376973,-0.12398533107789467,0.003299365321671176,0.358272331172843,-9.942753024132174e-05,0.050268126214498644,-0.014165258706443836,-0.0021748088952623507,0.1697480118453187,0.11366417803483587,-0.050468335843209616,-0.1501901325171608
44,-0.02675403689140092,-0.11960323587035575,-0.00030002307473586285,-0.05759514782616412,-3.3891870495469063e-06,0.053555424265908626,-0.013218110474766691,0.00015671677959396327,0.16403114237063093,0.10732050825351436,-0.05465432590818913,-0.14828665543327155
45,-0.02317619542150233,-0.11834149230106202,-0.0010908170118825362,-0.5177784665687367,-0.0002459360211567318,0.05364434882122824,-0.0133142036888975,0.0003596606551495569,0.15851288096203742,0.10182080808519642,-0.055323994106804136,-0.14807425802292598
46,-0.017233401982396635,-0.1192519960873553,-0.00037445172496012365,-0.9655156951322685,-0.0003033774306526458,0.053029350167483384,-0.013489787290010014,-5.038660805267627e-05,0.1533889995484003,0.09683999104495554,-0.054353731673658943,-0.14854062443336385
47,-0.011411448796532773,-0.12093201206916392,0.0002550959985430449,-1.340808584565368,0.0004927597021823882,0.054640314580564585,-0.012653495619265742,0.00044534497044707814,0.14831489777543347,0.09176199227913766,-0.0539109686620639,-0.14877265282431043
48,-0.0066135237517816305,-0.12179890158639566,0.0002552535958946619,-1.6142110642457155,0.001464392592317665,0.059390672134843156,-0.011851860686148363,0.001288526530480866,0.14306712583315323,0.08646023701620804,-0.0541822826368047,-0.14869242205914546
49,-0.001438431125406267,-0.12011196641558464,7.190914462234686e-06,-1.7831195872721315,0.00041277094722363093,0.06642223541676916,-0.013590849806176525,9.59323321842705e-05,0.13785016432574762,0.08123820653494092,-0.05400187356926692,-0.14866240762039248
50,0.005293157090397919,-0.11495435279569945,-0.00013895977154788368,-1.8494161528404294,-0.004283022815920223,0.07434609336533386,-0.019032253284832476,-0.004677003970883436,0.13293888432931947,0.07627026562703897,-0.05291950682890009,-0.1488299250883286
51,0.011423843414323029,-0.10904946339856839,-0.00010728969381619071,-1.8306649688624117,-0.010303303947774907,0.07970808419133199,-0.024884880824365775,-0.010620597400778718,0.1281066931392303,0.07109972924098573,-0.0528915607502417,-0.14881133108856465
52,0.013157580644770328,-0.10604555331793786,9.881869279592688e-05,-1.7485448894101596,-0.013898167958607486,0.07860187916578645,-0.027138971849748783,-0.014296227831256187,0.12256626997562578,0.06512444699122252,-0.056234863152049425,-0.1482144609762935
53,0.00889639890595024,-0.10651635851007442,0.0003066648277763945,-1.6169229825557336,-0.013789576055297065,0.07188802404394902,-0.026097220821727964,-0.01459205063449622,0.11588841274707229,0.058894497602337614,-0.06227803151889882,-0.14769589300445762
54,0.0023432042556283334,-0.10691807990169509,0.00011679442626311425,-1.4392043551808231,-0.013107894977179345,0.06681104268552181,-0.026433158413748402,-0.013512356094779358,0.1100926273259556,0.05450306979845334,-0.0673210191912864,-0.14871777253027985
55,-0.0021790971111110345,-0.1039572724794719,-0.0007036965103185518,-1.2211022587395832,-0.015164006063306118,0.06967240702532189,-0.03161782061047859,-0.013019149018789167,0.1081293396924635,0.05365413600820796,-0.06846675336894337,-0.1523658777084396
56,-0.0028862558186202795,-0.0982202951079968,-0.001073067825094974,-0.9902384379501457,-0.020389729243401145,0.0767590140501011,-0.03800247514974615,-0.013198967746072267,0.11001106691040823,0.054468725832719105,-0.0675974017331799,-0.15827831823033173
57,-3.762796551358091e-05,-0.09198868607908176,0.0006604756682135037,-0.783734297753375,-0.027499018554983188,0.07999505167439883,-0.039748634811736794,-0.013318973808254093,0.10991600591352278,0.05350804498720097,-0.06805630578419276,-0.16571760614884662
58,0.005578908875017783,-0.08665460834863503,0.005180638154230953,-0.6225343881127985,-0.03585509702494637,0.07557991152218964,-0.03503504013973188,-0.013085377089814719,0.1018149540270527,0.04902166903688251,-0.07000565244742821,-0.17267367083785884
59,0.011245941216432208,-0.08175617746094835,0.011164209940218805,-0.4940478443327966,-0.04676276849592273,0.06859200255249215,-0.028088577874550883,-0.013119501321664888,0.08596836993250673,0.04276425206564337,-0.06881840390189092,-0.17572716087683637
60,0.013828355482166309,-0.07665429608609793,0.017108970202349076,-0.3825750146824777,-0.061708650185803654,0.06481267043823875,-0.02300262158986835,-0.014023754767123897,0.06705518743210606,0.036799746471566405,-0.06039805153170744,-0.1723993360664266
61,0.013171005113181894,-0.07136565854947408,0.02238284763403153,-0.2854862256079931,-0.07874352192291628,0.06505957322978816,-0.018695691994247216,-0.014746025092401503,0.049191700849526405,0.031630542580430875,-0.04821699888236157,-0.1658484280674889
62,0.012985602463337277,-0.06635309002324861,0.02694614136194918,-0.2090443060745832,-0.09268927262630805,0.06677310713622604,-0.011546134532508152,-0.013108707903991679,0.03408140848932932,0.026696553395099056,-0.03941342439972324,-0.1611380731958657
63,0.016584899401206946,-0.06175187304162082,0.03205580253702699,-0.15750965011468987,-0.09975290084112666,0.0677907567574607,0.004875915872860657,-0.008043999801214546,0.022798710460655805,0.021561317372467338,-0.03384682455344528,-0.16053907187629746
64,0.02256609831592348,-0.056593832153198374,0.04318872978951067,-0.12800888491193887,-0.10342304499213383,0.06746615935320074,0.043336626688181286,-0.002198618870590319,0.013880488432402938,0.01626109056462167,-0.014795636208224883,-0.1618449680430575
65,0.027473603481688768,-0.049789598141319315,0.06643744258989426,-0.11614234401610068,-0.10931299915748913,0.0655457256118114,0.11593670780602529,0.0011250320105327858,0.0027329339596954064,0.01092737329541961,0.035531857517484215,-0.16266979834656659
66,0.029076266129855192,-0.04283523235212573,0.10175585202749152,-0.11592222753763685,-0.11950672497973631,0.06379850661266813,0.21334648189032818,0.0012238924931083982,-0.014213380820939675,0.005651640043580417,0.11797354432948073,-0.1625632037950172
67,0.02776035771840487,-0.039911642223854175,0.14272321772728258,-0.11971153490082631,-0.13088202597260204,0.06609396882732246,0.31052689805421047,9.419523155675645e-05,-0.03186984575848529,0.00048380036032228486,0.2209389580223338,-0.16206849581800117
68,0.024241074374519188,-0.04396288504849704,0.18081251443016616,-0.12107096129612854,-0.14010589695660797,0.07514062747977863,0.38668768924541136,-0.00045675799614376575,-0.04142085308131415,-0.0045742425881355915,0.32941112965694486,-0.16169683932806705
69,0.019160865721110507,-0.05067858327108833,0.19785411325671948,-0.12035053050487084,-0.14555727094475743,0.08694167359547174,0.43723631203454133,-0.0002967720881782802,-0.038781954734098914,-0.009766050253613755,0.41733731202738333,-0.16186461946119995
70,0.013109976257124793,-0.053402785109366586,0.1726758635239876,-0.12012206401229862,-0.146461129384816,0.0953246831252126,0.461178258532485,0.00015071213782892018,-0.03032285799955607,-0.015407630697713589,0.45733676767033987,-0.1628770176891624
71,0.006849775480515425,-0.04936410272669056,0.09664956313537186,-0.12102619118438401,-0.14279717539355383,0.09722191004066875,0.4586573419964178,0.00046087828897264157,-0.023393056371118225,-0.02124031401333764,0.45142535029370695,-0.16364148607419465
72,0.001761604508420263,-0.04196063349107527,-0.018935381609508986,-0.12063531309454797,-0.13631196435947363,0.09449678772146478,0.4310546981903726,0.00020730438087872174,-0.01907525113713656,-0.026093009398671173,0.4335721668674519,-0.1620205991677622
73,-0.000686215826261372,-0.034884680334811416,-0.15988195691298346,-0.11667734883045476,-0.12900740628556626,0.08940765055094321,0.37630304823852806,-0.0008612325838298545,-0.01359072041486616,-0.028797069850426397,0.43120554859943283,-0.15691120644300677
74,-0.0006196780053391551,-0.029572045898486013,-0.3018810088527308,-0.11068453328774351,-0.12289519545914901,0.08382876330502866,0.2729234640232486,-0.0014378608929771113,-0.004195176562422094,-0.028925922937834213,0.42670182986948557,-0.15095653440783174
75,-1.01924228208582e-05,-0.026276381748911778,-0.4153667355275745,-0.10617737935185735,-0.119994673135056,0.0794322676123522,0.09303349081302499,0.0005962660111327882,0.007061219297503316,-0.026446090138632396,0.3869113927452605,-0.14752921640374772
76,-0.0004926420196768222,-0.025108849360431378,-0.48479996644522355,-0.10521515146116978,-0.12104875606326743,0.07753885786372744,-0.17313987208031176,0.005922560620873236,0.01692299975271499,-0.02292111600248397,0.27592271783696887,-0.14740277062397728
77,-0.0009517061211928184,-0.02585356858099348,-0.5294791943085913,-0.10619652385630263,-0.12181914535902708,0.07860360276968494,-0.506076835985522,0.011646368772026416,0.023496825648283256,-0.023859484115967063,0.05338111451368355,-0.14854870620256955
78,0.000776915902168282,-0.028127216771446712,-0.5727651871373094,-0.10704900976950403,-0.1169955298554391,0.08284153664120528,-0.8806122554868163,0.01451887463287059,0.026744552500021716,-0.03483045553977824,-0.31309024362557797,-0.14911548830859717
79,0.005497235009474073,-0.029658125213064476,-0.61820608498874,-0.10707105381746393,-0.10614799525379552,0.08872859938406227,-1.244980412034843,0.01433290832244616,0.026978845969309346,-0.05275541650300185,-0.7809970874150928,-0.14895388658561726
80,0.011448448676201865,-0.02665314792669405,-0.6533866070783568,-0.10666568677826638,-0.09482481439916397,0.0933395086220657,-1.5335094598063146,0.013332013435513244,0.02626057979767002,-0.06758799179954753,-1.2684904910440038,-0.148485854804471
81,0.016758930763851116,-0.016975910536560442,-0.6682002973864634,-0.10626495836624117,-0.0879411640389942,0.09457980882970268,-1.7086799335772502,0.013247071641342084,0.027487588215665004,-0.07190199054991558,-1.700841191975862,-0.14815492162558758
82,0.02154081242821778,-0.0052481643092382926,-0.6635234499839004,-0.10629141352927425,-0.08384047769275145,0.0938162119250081,-1.8022209711076822,0.013493957633255312,0.03212704725058599,-0.0694748382652413,-2.0216148533995746,-0.14843759310406646
83,0.02717389169933527,0.0023421514272701565,-0.6430129277111395,-0.10713359527218588,-0.07822576589623009,0.09323153438072757,-1.8540165171564726,0.012956840674518176,0.038129431825656174,-0.06676264981469565,-2.181038251377566,-0.14960592536937017
84,0.034022266680506626,0.003486420744415222,-0.612107051986489,-0.10809289185474216,-0.06882416924480339,0.0935022477036605,-1.8691529968990865,0.01201350797635032,0.043074696639614635,-0.06661695638580668,-2.189830980564497,-0.15019416983685668
85,0.03917321181148596,0.0006388483171217282,-0.5784313214097059,-0.10713594253907757,-0.0573028815111669,0.09345541562997269,-1.8253424115724528,0.012875528985615515,0.047330293707709095,-0.06746377892679158,-2.106300969237799,-0.14787675882469611
86,0.03920692238529027,-0.003729406674442588,-0.548311089116312,-0.1026926987968505,-0.045700387200044414,0.09222146142240271,-1.706596790699465,0.01729153532810916,0.05365003904769177,-0.06772200928600397,-1.9771973903093407,-0.1421069173535347
87,0.03409631807068125,-0.00893232220367042,-0.5187611149278855,-0.09673195890852285,-0.03511094461977821,0.09163606572735378,-1.5237250933638484,0.023275168981678425,0.06385781926459702,-0.06752523982434809,-1.8003755700676445,-0.13641869763827352
88,0.02731902963855888,-0.01499052679048319,-0.48310018592662257,-0.0926191656982207,-0.02601626901910633,0.0945894951707493,-1.2942186661225927,0.027365919436883008,0.075124600943,-0.06768499656751653,-1.563074342280749,-0.13456926957597384
89,0.02186123458918563,-0.021266082714539628,-0.4369485310082268,-0.09195271215847167,-0.01891916828614558,0.10119006867920385,-1.0450285372143078,0.027957534624633896,0.0833388789354221,-0.068288885709419,-1.2838975678584532,-0.1355733720074436
90,0.01713726541481242,-0.025874213216486936,-0.3802896635595179,-0.09298796492981462,-0.014421958137825841,0.1062886694619513,-0.8141342703039322,0.026951818391841388,0.08774498147983432,-0.06805443044300764,-1.0180159103390645,-0.13499547317646243
91,0.011371557325665506,-0.027076119440847795,-0.3140639711931507,-0.09374211485933924,-0.013075175883825063,0.1047692911555001,-0.6341180512750679,0.026466163386923532,0.09263678648027444,-0.06563266535168862,-0.8137350607750293,-0.13004802698023124
92,0.00467524881675326,-0.026286472222485098,-0.24445309762770134,-0.09370560276776266,-0.013729693904330827,0.0983539345671753,-0.5014139651943318,0.026691109357497255,0.10204244131425798,-0.06062356806715994,-0.6657415738457132,-0.12386243813682078
93,0.00031662375311549903,-0.026883504334709662,-0.18090129018376694,-0.09328664838658395,-0.01350428377490218,0.09302270364857641,-0.39908245268159415,0.026617303911036682,0.11378137329174637,-0.05321834182564524,-0.5489094259369913,-0.12069044084733047
94,0.0014496714859734243,-0.031014878968909858,-0.1295120414456603,-0.09290848933658763,-0.010051425036385201,0.09249566663331321,-0.31484662699330873,0.02584590424871307,0.12236315773331283,-0.04371294338698067,-0.44709924989134386,-0.12107695946188667
95,0.007144865221521938,-0.03707436500793753,-0.08629099787055827,-0.09299771727017304,-0.004263446396489873,0.09356918637638276,-0.24457259138384158,0.025850624918474945,0.12446044964620832,-0.032688692235988005,-0.35984894268602213,-0.12167662098919278
96,0.014152297938249729,-0.04284004475967211,-0.04561677547327292,-0.09392208009555607,0.0019108254507158968,0.0919208384822838,-0.1852774078773356,0.028372744624643016,0.12273043598001712,-0.020811110935741107,-0.28831035825037715,-0.11942624304925549
97,0.020045074307135792,-0.04778095057405577,-0.007031832698257897,-0.0947940308779461,0.007326877438664919,0.08670140280058612,-0.13726849404141686,0.03347496426587371,0.12075425545083274,-0.009406680036984635,-0.23408076604769718,-0.11369837825198473
98,0.02476178150230394,-0.05297698878349282,0.02500206676001271,-0.09353017315854696,0.012130079274883226,0.08037038753769284,-0.10271137672409573,0.03962089709930774,0.12030529212345366,-0.00043153797470233193,-0.19900468024969803,-0.10467601976683763
99,0.028573055360337444,-0.059101989620528476,0.046943172108584376,-0.08876606149703462,0.016625162324034715,0.07499435043830331,-0.08192128673585919,0.04542018064303876,0.12144966405828525,0.004933986048277859,-0.18238726967985117,-0.09355824120813065
100,0.030227303891591402,-0.0645639134799817,0.060626728703411376,-0.08283144002763294,0.02151343868411737,0.07011175225769713,-0.07026516302318671,0.05049275881266453,0.12430248221439426,0.009369235926561722,-0.1768118567877458,-0.08308418785269528
101,0.02706943561423586,-0.06713138398554137,0.06948065370195253,-0.07912364141474414,0.02770631321844968,0.0645272186068172,-0.06249024948685171,0.054777618010066365,0.12957835410798207,0.016655551382343637,-0.17398865441194622,-0.0757425426019867
102,0.017580814596394174,-0.06672546004291237,0.07565838633953491,-0.07881211578058805,0.034903561158433946,0.05840565521726829,-0.05660085860741875,0.058978986997144364,0.13816342420722885,0.027565434627839343,-0.16951214740725248,-0.07095051425115836
103,0.005941434936176657,-0.06639628340455975,0.0794602541925915,-0.0798274322534146,0.03967656564771561,0.053889557835720706,-0.05335017450699198,0.06491340049364121,0.14934249931809168,0.03849725797827313,-0.16225503382290143,-0.06663910068467502
104,-0.0020221666461715106,-0.06905757648294442,0.08107428251049688,-0.08012067572708013,0.03838107516129743,0.05283846392231111,-0.053021873276679087,0.07411071654452198,0.15973578080730547,0.04600929427129883,-0.15186210413185716,-0.06151495780543945
105,-0.003652674560137373,-0.0745744440680986,0.0809558686047042,-0.07983716022397137,0.03226863637778305,0.05361803076361765,-0.05360698531377646,0.08511983571787905,0.16591280963188076,0.0506761307022419,-0.14073943432119487,-0.056029203027277256
106,-0.0010103023809482367,-0.08135454855606093,0.07969022973897252,-0.08016660004706969,0.026742240700488626,0.05292978769199945,-0.05253851354388605,0.0950685406820897,0.1665256221260771,0.0549876361943904,-0.13194494237129176,-0.050811160935857365
107,0.003586618637747107,-0.08781210444556908,0.07830641576866064,-0.08127376707196626,0.025801625881886486,0.048857081848632106,-0.04843418694963753,0.10197580092074658,0.1614574272305433,0.06036107136472755,-0.12638555760775147,-0.04574126973301408
108,0.00888769968355302,-0.0923965462568173,0.07883231835801584,-0.08099794936882171,0.02687349988019264,0.0426220486455382,-0.041393452125610866,0.10588979014826866,0.1515030897971409,0.06576852740387955,-0.12227800330798505,-0.04016982527001291
109,0.014182609322082056,-0.09374399315235081,0.0833510278340108,-0.0771144047023654,0.025693855024299245,0.03586536279066286,-0.031770314703673926,0.10718536055548723,0.14018311534642763,0.07001482293035222,-0.11785638068357804,-0.03395796321569648
110,0.01912619056602013,-0.09304946292330926,0.09279786175895291,-0.07097791208822818,0.020810484322603223,0.03006933819042064,-0.020970256552072904,0.10692428428097424,0.131414086741208,0.07426221781728595,-0.11257586612287258,-0.028703284052776813
111,0.02426004259661801,-0.0933979440452058,0.10726033979780772,-0.06658702730671741,0.014508437460233501,0.026599295778563976,-0.010820724590003883,0.10667566745043135,0.12612584840090188,0.08141411818339281,-0.10638834968641636,-0.02627768693583753
112,0.030175007784473785,-0.0970333271742215,0.12548307611325257,-0.06642879089385774,0.009003987201821197,0.026113680955013388,-0.0031609756914069164,0.10735958621344599,0.12213697528894932,0.09281775448050097,-0.09996720854610085,-0.026489701295374538
113,0.03606264854669019,-0.10301192838705056,0.14144699544497255,-0.06732533928570854,0.004136268309251746,0.02673570080495924,0.00014977436891596948,0.10751655572277892,0.11746034693046416,0.1040706935200861,-0.09533217967154806,-0.027039704843066534
114,0.03996332859841138,-0.10968105593806847,0.1482508405925129,-0.06496347984706707,-0.001298828740680665,0.026115510529787733,-0.002398710028451133,0.10521024484079321,0.11208165499405101,0.10965508660412893,-0.09432208048497327,-0.02621681908336111
115,0.040627572665527384,-0.11562202427310414,0.14444647884870207,-0.05903348418430861,-0.007467633251337604,0.024703176010593453,-0.008543744528271004,0.10018749487507916,0.1066931255377817,0.10917800658985476,-0.09524584451820763,-0.02577224729804444
116,0.03993548597946451,-0.11967963256245599,0.13472585010739915,-0.05373341776202646,-0.01233373693162509,0.026101387806485497,-0.01372951039999921,0.09409035437202742,0.10160836700886092,0.10801705118910132,-0.09426725194042768,-0.028498814086461106
117,0.040519959071489586,-0.12101439662332591,0.12365884605969643,-0.05256391769318545,-0.013824129800975925,0.032255576447816105,-0.014979495827176668,0.08843214623282458,0.09644176997008923,0.11090340761090285,-0.08927897655094559,-0.03449147159938114
118,0.04218020490225746,-0.12055404219989128,0.11318148192450399,-0.05353112865996786,-0.013062889728403804,0.03441724097254252,-0.013922589122257346,0.0833797966945518,0.09081009931107825,0.11697802048993486,-0.08320054567956588,-0.039864171899774016
119,0.040957172330290975,-0.11983962384599871,0.10427103525344207,-0.052672596153835426,-0.01342659382186266,0.02008803633313573,-0.012928145886303427,0.07861088551082698,0.08524902092972597,0.12336940553415994,-0.0796956273467583,-0.04109860986383378
120,0.03302605376897838,-0.11810643680907416,0.097696695868735,-0.04815720326102176,-0.0172758233705241,-0.012414082747187045,-0.012879454368043518,0.07375749352896335,0.08089478005349768,0.1285966935896775,-0.0795656801246725,-0.04006523142021142
121,0.01746129821749408,-0.11060937434500656,0.0938709020454356,-0.04183654380247629,-0.02328365086307295,-0.046097001800750055,-0.01331454657201813,0.0683743776002654,0.07875757010608284,0.13358361287689102,-0.08102115947481149,-0.04116172305063212
122,-0.005355581264008992,-0.09366521875473122,0.0929978599473217,-0.03578017607185299,-0.029366454954565187,-0.06395091204299855,-0.013738741784619861,0.06216479472981242,0.0793836847188127,0.1393160451413007,-0.08230641715950697,-0.04637068393319532
123,-0.033035343405158506,-0.07797186764077324,0.09357483602591957,-0.030605374332716494,-0.03461399906711605,-0.06706884660455885,-0.013728166205050091,0.0563739961308201,0.08323855251828041,0.14504005663115266,-0.08223547803517701,-0.05243096566259399
124,-0.05884039951908897,-0.0824112175483053,0.09312743107013834,-0.026101377677794507,-0.03941278718077218,-0.06685043066118652,-0.012903297976255963,0.05312381679237534,0.09131652698292084,0.14901137410278464,-0.07980356360688,-0.055651794141618874
125,-0.07601123824966334,-0.11892124947934865,0.08983007287355196,-0.021779340586604932,-0.04420049876145118,-0.06884521826888221,-0.01191342118517966,0.053209169484591104,0.10521975576038073,0.15017232498633523,-0.07492848592498305,-0.05556490852682205
126,-0.08543191679110042,-0.1803949017802707,0.08364323242073779,-0.016424062580404963,-0.04932227594988884,-0.06245051080884967,-0.012788542841651694,0.05380723803956575,0.12528350525165305,0.14935406877836618,-0.06876622345188735,-0.053922330443574744
127,-0.093594013835058,-0.25705416577472495,0.0748597446240927,-0.008761629953836992,-0.05504412080021751,-0.034986069142657665,-0.01715996765568787,0.051648815161548595,0.14335703055083815,0.14746069175047422,-0.06252030509589522,-0.05246687251522157
128,-0.10246193617963727,-0.3485835710332588,0.0643796412425232,0.0013333065026601841,-0.0577859050625109,0.014776827816688579,-0.02313849009182943,0.0463750873387651,0.14791677124258215,0.14095380966921334,-0.057114961328222406,-0.052769991400124255
129,-0.09682133060866388,-0.4629364536180159,0.053633550910224564,0.012982426865581582,-0.047266911781098514,0.07806003150538217,-0.027323370905421404,0.04017047865448593,0.13198443322542855,0.1224130007344311,-0.053352385934841706,-0.056269437815169514
130,-0.058030245963112216,-0.6022134483835201,0.04363548729592904,0.02505515145557677,-0.014086004195969639,0.15138361022919275,-0.02802552337005548,0.03480652218873788,0.09788382605351052,0.08771401076445219,-0.05187799869900192,-0.062142958808119556
131,0.015608947147134062,-0.741766852704486,0.033503944790979415,0.03546772118342728,0.03535465790510004,0.2558520842341572,-0.02701250087153747,0.02987994267436879,0.04847099374744759,0.04768313349692199,-0.05302271827993141,-0.0673203962641096
132,0.10575022990913806,-0.8500969268164201,0.021895632819164998,0.04190944884462168,0.08543672511872645,0.4180295183395174,-0.026330722955446074,0.024421429267389386,-0.021610981535401967,0.01688601538685355,-0.05697011574020817,-0.06927510676511806
133,0.19752129332066998,-0.9138366583988163,0.009730961053843546,0.04342543756571183,0.1275539428230284,0.61332299680446,-0.026422059663549838,0.01856884253100799,-0.12365018904213503,-0.0039700404185172185,-0.06260674598371331,-0.06862205397076498
134,0.3057946632364586,-0.9437712958836904,0.0009455098106864162,0.040866654954644664,0.17319499192631238,0.7490004178022514,-0.02667991056359278,0.013934767216819487,-0.2604721766990522,-0.03263659299156995,-0.06797157417593869,-0.06693860445906318
135,0.4570045032140435,-0.9517341116228124,-0.0012027572029011829,0.035396858473779665,0.23610836821716827,0.7456174317957179,-0.026680580186945357,0.01197527486807208,-0.40220539311770326,-0.08479918196139906,-0.07110821085778483,-0.06582497510138278
136,0.6546492655440491,-0.9450649510925938,0.0001948567523029415,0.029522283778835614,0.3050811956261491,0.6527129215762485,-0.026621547744853882,0.012293312136968996,-0.5119169448880256,-0.15218222347955204,-0.07011980882492806,-0.06691383195412372
137,0.8580059020790661,-0.9290846839739909,-0.000697922752187536,0.026319992785960172,0.34594438323923443,0.575711974929006,-0.02679851335508947,0.013683408290921517,-0.5789592202229753,-0.2161117695640933,-0.0632692862418586,-0.07142804527017795
138,1.0217576231554477,-0.9000531609024446,-0.006338420373752987,0.026717535101345634,0.3306032131508881,0.5698553548506107,-0.027040037650576127,0.014837420095491926,-0.6260153249692899,-0.264772694380301,-0.052055437047768466,-0.07746560901379776
139,1.1057282415338385,-0.835617287558109,-0.012213206533384724,0.027218038999628793,0.2635431826069925,0.5867250929863634,-0.026721159322999732,0.01424298694972025,-0.6748074273910277,-0.30054068867990547,-0.04111860221555531,-0.08170304221163949
140,1.073107923789715,-0.7139548211343568,-0.013482590970880738,0.024135385536996255,0.15883137942088232,0.5695856323298257,-0.025594836316918713,0.010555602194813662,-0.7242076585700659,-0.32745327965148624,-0.034173005982382196,-0.08244763506927807
141,0.9105518749450104,-0.5482592515849016,-0.011902333683046605,0.018191066351965764,0.031220103044570666,0.5167525188310105,-0.025336633047180757,0.004826411809800245,-0.7629001260182414,-0.3485061908806825,-0.0298159362983681,-0.08144201104577638
142,0.6805657132983692,-0.37541767871235426,-0.013690625750503478,0.01308887064246598,-0.10355153110860943,0.4637906706688821,-0.028157236421218847,-0.0002724651849624108,-0.7807970836631141,-0.3659895979674362,-0.025137315511176345,-0.08073379887818329
143,0.4597552656122057,-0.22822329040051043,-0.022678535621906314,0.01148289072034419,-0.2297144617514622,0.4348600363991132,-0.03395103430768993,-0.0025793867206693934,-0.7707030195257304,-0.37999071821323405,-0.01926345981902338,-0.08080741435205174
144,0.2933146615103021,-0.1246494500639214,-0.034632392581266526,0.012418007626714803,-0.331876465351403,0.4146076698478967,-0.039275267809716956,-0.0016984222556139332,-0.7267316389902329,-0.3834515710365897,-0.014254890365334918,-0.08109934101251991
145,0.19327918925155815,-0.07865465684817266,-0.04385224713211289,0.014204787922839461,-0.3948621080156111,0.38038435778268787,-0.040984091768599074,0.0023510476060755224,-0.6573679726042635,-0.36818173092474005,-0.012097675826767892,-0.08118268829310293
146,0.16350209978250596,-0.07987634384536259,-0.048933006604617434,0.015170256681454776,-0.41222903141642614,0.32784397679980226,-0.040238991382663514,0.008189864576331479,-0.5825555423888962,-0.3338615407168078,-0.012435564868509556,-0.08111868199809782
147,0.17082357223973574,-0.09283146217152555,-0.05290560400587774,0.013658438466189308,-0.3976621661151843,0.27154510270327065,-0.040199801297255415,0.013034397770131892,-0.5192180023669944,-0.28830081809016916,-0.013819634166583574,-0.0810593164606053
148,0.16947863601781143,-0.08733029392141248,-0.05830321886477448,0.00867463886248632,-0.3674101475197625,0.22428530073494418,-0.0418599750600802,0.014645088411855502,-0.4700621129616863,-0.23917394605348302,-0.014864599382300956,-0.08105950656678054
149,0.13728383759838103,-0.06733161758720935,-0.06394228675280693,0.0027209661434075766,-0.3338316323024805,0.18492987797693758,-0.0414923468062689,0.014005221709486516,-0.43392269061699146,-0.19145625248887982,-0.014336464453078178,-0.08108016463046401
150,0.09241047396105892,-0.047931618857590515,-0.06743798540545994,-0.0005900171422137089,-0.30631026729138594,0.1478275209850596,-0.03514348574741474,0.013144794088563587,-0.40555592124123774,-0.14920412243230913,-0.011139656720901782,-0.08108647332536588
151,0.05535975234414418,-0.03660339591175211,-0.06792564921822848,-0.0003198953220574928,-0.29121493625999545,0.11216149593611367,-0.023977100720314313,0.013096298695330333,-0.3740076367872506,-0.11463780347039726,-0.005728684340737779,-0.08108225750627973
152,0.030173375096114646,-0.028773715123656014,-0.06694183627640948,0.0002466695092156537,-0.2837268661602884,0.08475239913867796,-0.01274771646440892,0.013316331033438683,-0.3294880260803135,-0.08707950841099199,0.0003542210922304065,-0.08108252939436045
153,0.011324745363088664,-0.019380890433913958,-0.06611891188107107,-0.002179545598575332,-0.27649357407134706,0.07186515533434591,-0.005144696025577949,0.013216937782527765,-0.2754180709987506,-0.06563611454669503,0.005913533674961898,-0.08108899426551684
154,-0.005429725701592916,-0.008427848287594866,-0.06606595868115886,-0.007641394736625915,-0.266330631277008,0.06891726821680946,-0.0010454283270484005,0.013043478828140222,-0.2217547859576332,-0.04976961987364814,0.010988896081872222,-0.08108476444217637
155,-0.020337618659656276,0.0014472845441488764,-0.0668575834429281,-0.01449113359924321,-0.2550495957387559,0.06568929925143752,0.00047335715828817634,0.013473218182638087,-0.17563392232050137,-0.03912543123052016,0.015879393137743454,-0.08105811910967912
156,-0.03296872820835179,0.008372266053813688,-0.06801465239897148,-0.021066251670832904,-0.24445030218367123,0.05607810446097795,0.0004452369295023913,0.01447465127182929,-0.13695548996755944,-0.03282198397568216,0.020920094104940567,-0.08104536352287253
157,-0.043510116327038606,0.01241552566862192,-0.06770658979920474,-0.025703708559020207,-0.23436567897002528,0.04423019883373411,1.8634566137545275e-05,0.014262835643718087,-0.10451483553692881,-0.02867694438407861,0.02648353410126084,-0.08110361285303537
158,-0.0527304308603015,0.013967165278675154,-0.06408012932651565,-0.026917722446267996,-0.2238594799849292,0.03554454953695202,9.628887008426103e-05,0.010951550284095236,-0.07745321547961327,-0.02440507114810472,0.03267222265887423,-0.08120789894035829
159,-0.060949911320332735,0.013870464795210206,-0.05816893622941326,-0.02604360748467369,-0.21283497959484687,0.030711293564201183,0.000260926022685703,0.005257439286665841,-0.055216213955584056,-0.01921018423870046,0.03815967453506227,-0.08116576430801836
160,-0.06617360624417186,0.013331863892653699,-0.053320153827092646,-0.02667739771305947,-0.20279067053584482,0.026647088966351234,-0.00031782430491723634,-1.701530332399559e-05,-0.037172178768750765,-0.013489381210033905,0.04117531480261546,-0.08081314755660483
161,-0.0657499013936129,0.013266022456232216,-0.05198147693928333,-0.031242748060034638,-0.19526031761118395,0.021106951655022303,-0.0013227036132525296,-0.00250769801433334,-0.022271657668972794,-0.007711377057298947,0.04137678673504935,-0.08056169211650623
162,-0.06007823799894972,0.013394536405911013,-0.05279025277618877,-0.03728055135569451,-0.19015579593597912,0.015577004999763595,-0.000660505056820436,-0.0018139591094522788,-0.009352233552202207,-0.0024953311242402005,0.04063182975933716,-0.08119806978000114
163,-0.05420100682274526,0.01316528501179734,-0.053486670823568144,-0.04119385036069946,-0.18635976160573964,0.012411563677648141,0.003499808964852074,0.0019491286498282982,0.0020662062151360658,0.001489710182986446,0.0407251874426612,-0.08270106761639574
164,-0.05280357143545237,0.012735177042130636,-0.053295002676865655,-0.04168863038465655,-0.18260294554490877,0.012161563739732272,0.009484662441056241,0.00761681464673238,0.011408133604542547,0.0031419941493425873,0.04113676359697406,-0.08257669514096999
165,-0.054051604609904325,0.013126925274144378,-0.05325174952652342,-0.040283026156363755,-0.17719765779649613,0.013175815023348829,0.013864755727196254,0.012742574660350982,0.018145277991609268,0.0008313854495688349,0.04018966358769817,-0.07796947607821503
166,-0.05275178114157466,0.015401041351891881,-0.05416114237524738,-0.03865358080844049,-0.16848782802241968,0.013855237333806886,0.014729291411938327,0.01607054498909207,0.023047896480354203,-0.006680112348384852,0.03664237608684326,-0.06822387798556934
167,-0.04663086288463891,0.02052242678964767,-0.054618855179669426,-0.03839614988002197,-0.15738351474932546,0.013800130228595428,0.013747509640365783,0.024527037173469733,0.02759857447274876,-0.017894085206423698,0.030291404224720365,-0.054758159852122915
168,-0.04083016517423511,0.029400844773612402,-0.052360924425204486,-0.041059953686338004,-0.14735398485051562,0.013091015440927315,0.012995489259044334,0.04826619863573791,0.032772872635343314,-0.030231615124267613,0.02115497991965537,-0.0363529492642594
169,-0.04126208839799983,0.04110027952556209,-0.04693579625304264,-0.046625489825355054,-0.1411006207842744,0.01226135420280343,0.013046289715915997,0.0953530322142752,0.038100297792179896,-0.04170502488143141,0.01031861229746841,0.0007462682422715826
170,-0.04738768716895562,0.051219836370911626,-0.041298486497342586,-0.05212846330316365,-0.1367862818783728,0.012692649372426845,0.013340803595196196,0.16991522231288225,0.04290546331947523,-0.05144171423353537,-0.0003282472989603826,0.07364295934334687
171,-0.053243780501582766,0.05545331346167067,-0.038512220179300644,-0.05457427215876937,-0.13113445930497594,0.01571210511856921,0.013430761887777122,0.2753625850918419,0.04754547617902235,-0.05877743263522335,-0.008875616840471652,0.18814800086793237
172,-0.054332997363953354,0.05474075024121077,-0.03869833133763996,-0.05420751569891577,-0.12221416810212135,0.02102028584444344,0.013369976384445672,0.41197946183642015,0.053379467362932934,-0.06398861500291404,-0.013410453259290437,0.3347187076925183
173,-0.05320349674799006,0.053271105931335494,-0.04015570930556745,-0.05327894212361042,-0.11020429198145364,0.027310104393011434,0.013321937920738148,0.5781026402622228,0.061597815503989094,-0.06793384821728114,-0.012126598357001202,0.49950972395177506
174,-0.054236260990830704,0.05370635470460065,-0.0413016999077858,-0.05330096821745812,-0.09556946857497,0.03336613430420813,0.01333675781560388,0.7575909132138756,0.07226868027316538,-0.07068386359369562,-0.006262325014728326,0.6459369602613083
175,-0.059023794176491506,0.05404427609975826,-0.040984761493855666,-0.05351156649957768,-0.07967804165712669,0.03828878062173686,0.013337943643265567,0.89152486098673,0.08508745559335104,-0.069951151082862,-0.0004554300032241221,0.7276960412489581
176,-0.06537842635215506,0.051550897657770926,-0.03819001203682796,-0.052815027651058055,-0.06437211273916993,0.04125718267660094,0.013270778525333468,0.9151983273999863,0.09979308155485504,-0.06320258688614942,0.0013854141405504183,0.7130529711876531
177,-0.07111216638928466,0.04615511692292476,-0.03309995390594833,-0.0518982878899475,-0.05141027802500045,0.04188050907600581,0.013242832227309407,0.8076647324963881,0.11619945351832155,-0.05185227214852055,0.0005333630397894025,0.5992153056724092
178,-0.07607224792596282,0.040308958864515354,-0.02703163730965376,-0.05313737897322739,-0.042330395768173636,0.04017539054847187,0.013415567436414519,0.5894406495099962,0.1339439282325851,-0.041054389767120544,6.799681139752555e-05,0.3889991486888647
179,-0.08103538317921694,0.03583818079414966,-0.02119706522695278,-0.05809189981043474,-0.038488778836437115,0.036268389700537626,0.013688458152339591,0.2849697419301702,0.1506900959412216,-0.03477680851773203,0.0009570223917155813,0.11026220213275428
180,-0.08636903246930556,0.03109319429304733,-0.016091146813439577,-0.06409261026814864,-0.038766603681678787,0.030735737792630936,0.013525330441875327,-0.07031552276006094,0.1629027013296961,-0.030600211671865912,0.0006537526971272228,-0.19324566897924284
181,-0.0915200181343361,0.023433483944416356,-0.011972954224119257,-0.067267024685038,-0.03999125914374346,0.02429640876987934,0.012526740787764598,-0.4375288633005542,0.168880601652796,-0.024248827973054693,-0.00329328880311922,-0.47665528083844777
182,-0.09573563517760705,0.012637684077593964,-0.008029652611208478,-0.06681277443887197,-0.03905415017467081,0.018083939535158237,0.011938235880489437,-0.7693792663711362,0.17273126583922072,-0.014126480359216986,-0.009385575774923244,-0.6925455697037014
183,-0.09717748862290737,0.001982067156158676,-0.0018988064482680107,-0.06636629181225664,-0.033373842645654316,0.013831165813176206,0.01389173119609647,-1.0064258503054935,0.17953985842546732,-0.0025113821998457965,-0.013991586835082542,-0.7958399275973386
184,-0.0931930615573061,-0.005436635919834056,0.008313754944926172,-0.06938525226359935,-0.020621680579015783,0.012927548968748986,0.019133725442443364,-1.0989782045215188,0.19025221547278717,0.008319383512022641,-0.014967556125646762,-0.7971407254681451
185,-0.08277332925590034,-0.010103774950067168,0.019839626585054428,-0.07516981977176766,-0.002955774128122679,0.013675398312296489,0.024894721353448022,-1.0820004702738761,0.20138318067667108,0.01849205499688255,-0.013974675881141043,-0.7581456492745743
186,-0.07119987350780786,-0.014203831277207537,0.027705138253795936,-0.08104405930461156,0.011630945129046121,0.012915749787614126,0.02802543837070965,-1.0305519827626062,0.20967712617177894,0.0292703607499898,-0.01317112622136013,-0.7285568340340173
187,-0.06507496428598346,-0.019146618989649256,0.02932870374549053,-0.08436146046913649,0.016222137771283188,0.00882693939339568,0.028050813749059964,-0.9883881746364779,0.21455689663187438,0.040855641381940415,-0.013207324578105598,-0.6959868279414742
188,-0.06547173068170084,-0.024582335957542178,0.02752078741483939,-0.0825683966022125,0.014281444222378292,0.0026048537774803183,0.026657256737564985,-0.928548540711406,0.21644392518544783,0.05105233106153768,-0.013515019218882336,-0.6313718442696236
189,-0.06677908634009866,-0.029951191484845572,0.02569128332215305,-0.07317996732989726,0.013724096220986429,-0.004152109877146026,0.025467054343439488,-0.8177608493198418,0.2162780508760333,0.05759872484756444,-0.013620778873926223,-0.532694304356196
190,-0.06391081805658338,-0.03510329217055615,0.025379214965641998,-0.05449423173102158,0.01860501654466318,-0.009956599122612379,0.025607745777784064,-0.6689207147781744,0.21597863153202596,0.06186099005331977,-0.013560473559842785,-0.43372479025536653
191,-0.057875379458187194,-0.04018984697503511,0.026749297653002102,-0.025384428159027236,0.024970714070773163,-0.013402867262687732,0.028057518739852152,-0.5288373141331036,0.21729847295021512,0.06787019883275242,-0.013492275110543,-0.3655002693550796
192,-0.05213136495712873,-0.04533152343601951,0.030017508465482793,0.014620852864624263,0.028208182199190596,-0.01382530141964483,0.032883387102835365,-0.4318948442097614,0.2185993325431775,0.07813754102191928,-0.013486869963986993,-0.32340103936179554
193,-0.04802404575598145,-0.05051481246614219,0.0356968573722065,0.06369549962116015,0.02791914776860859,-0.013199985757137399,0.03906101545219568,-0.3652135080259019,0.2159641914505602,0.08951528371848952,-0.013510159804856472,-0.2879077978088157
194,-0.04272163517625059,-0.055697146979868495,0.04431868942291339,0.1198892524617489,0.026610359429864998,-0.014060026418796605,0.045475950439018614,-0.305860007171997,0.2070676170120932,0.09772587138712797,-0.013526100150027613,-0.2485111461578901
195,-0.03330043894366534,-0.060862777020955064,0.05504590862623427,0.1923396190113146,0.02620848175138218,-0.017981384703200487,0.05085393776807399,-0.24553451391810588,0.1953158176653944,0.10234678907372262,-0.013524880476635796,-0.21215201678780676
196,-0.02167138961608324,-0.06602598541688005,0.0655088875487221,0.30260141349328035,0.026482414562699775,-0.02546810538084933,0.05387089228723382,-0.19232537748124398,0.18529315982170386,0.10727282211238531,-0.01350687371385806,-0.18693616669431076
197,-0.012975386692483557,-0.07119862654199367,0.07352179396299548,0.46435558963854934,0.02676011498156305,-0.036429319175837124,0.05423565945946977,-0.15384100044840512,0.17911442242182918,0.11586888924139875,-0.013485553519819034,-0.1719896043997977
198,-0.010638250639488232,-0.07636917526098157,0.07844035552290277,0.6416269006407908,0.026770476894372616,-0.047641010662995975,0.05350352995578081,-0.12985214785341173,0.17597797716043762,0.1270867605154601,-0.013497773041744026,-0.16089695418201588
199,-0.012193605225436206,-0.08151803041430525,0.08018901955085715,0.7806432922201342,0.02667600136145726,-0.05478016109146773,0.05326261053150793,-0.1172884593896373,0.17493176649322556,0.1383044097713473,-0.013571317996727868,-0.14927662908973993
200,-0.014023842716098946,-0.08665457071660701,0.07968931722471669,0.8374761146732915,0.026633921728988125,-0.056065288198318596,0.05349291811794652,-0.11205484584680156,0.17514298424136718,0.14840722807077408,-0.013617459049977569,-0.13879617149255372
201,-0.014375026060858626,-0.09183792387999071,0.07957248798862207,0.7851294819946789,0.02664876759923125,-0.05407880389701278,0.05324002420571665,-0.1083043302736558,0.1758286669003169,0.1588710211299824,-0.013479952398677456,-0.1320047584869217
202,-0.013503626304458526,-0.09711383799971075,0.08235794744131608,0.6027490942545811,0.026671507386553866,-0.05174778322003031,0.052276053548975805,-0.10061925630580236,0.176298837233332,0.1710605392843022,-0.013180335535990293,-0.1278059787210705
203,-0.011982229639251166,-0.1023488864468144,0.08781916756597534,0.31335531658567695,0.026674809853085426,-0.05116786866037928,0.052383761535930454,-0.0894813566809892,0.1760586855729597,0.18275237016405055,-0.013226690725752924,-0.12184665184231688
204,-0.011628552434300068,-0.10730855827347022,0.09417416832632662,-0.035189730525459796,0.026668416122947552,-0.05396094020656144,0.055544052795458834,-0.07871383250848447,0.17475883520920094,0.18969388544289031,-0.01412973353154198,-0.11120215621739718
205,-0.014676664142637711,-0.11202697417639727,0.09999703046550894,-0.4074432280068447,0.026664633588293497,-0.060184503026636374,0.061196794818923386,-0.07121516360196123,0.1737621259137804,0.19008174120144863,-0.014968596447950734,-0.09963615788277896
206,-0.020953191008678415,-0.11726385694583262,0.10486725178193568,-0.8021276500606933,0.026665398127357128,-0.06570315464838766,0.06657865150965586,-0.06729411708177706,0.1757024772004632,0.18876238457885922,-0.013581159369372056,-0.09262473611026673
207,-0.026072815710585846,-0.1237817836086983,0.10848667280676857,-1.2208333747195799,0.026666728054632736,-0.06592659915767414,0.06927469788739037,-0.06673651519923102,0.18183840423095418,0.19136817096373385,-0.008653275735669439,-0.09185970820808241
208,-0.025676766484387034,-0.13021048573618554,0.10974375365903673,-1.6141814544527033,0.02666620873603923,-0.06065738448589819,0.06866323193863748,-0.06766323508255663,0.1879110698791904,0.1977309143807989,-0.002654184843363749,-0.09415934848011875
209,-0.020113549618070322,-0.13332595775743228,0.10682001459180925,-1.8884935614585063,0.026665929073048867,-0.05351604630185273,0.0646386122437186,-0.06674808670103494,0.1884313760757468,0.20264095764018206,0.0010031740137245368,-0.09625067813832806
210,-0.012530171347653305,-0.13080055921941933,0.0986119334740943,-1.9773987034746214,0.02666847701234882,-0.04754450717640342,0.058581239440295266,-0.06179685772580683,0.1827431698305451,0.20176220072589818,0.001276192064705561,-0.09639125270716833
211,-0.005680271369907472,-0.12446070880146815,0.08721795363388653,-1.9393199552193008,0.02667128399113061,-0.04272478976123024,0.05378110472053911,-0.055732259382133296,0.1764891934638189,0.19527387941158997,0.00016819626720836374,-0.09347611319215064
212,-0.0010601562272598312,-0.11723659222618597,0.07556704154274943,-1.8651039376415646,0.026667140630128695,-0.03821472384233001,0.05293580243473815,-0.052774141451732905,0.17482741173284919,0.18460978097493788,-0.0003825044160431689,-0.08779735992854368
213,0.00017407780212312838,-0.1111717154638416,0.06508115183080088,-1.7890801587536111,0.026653601616065527,-0.033372029784101864,0.05390241116598057,-0.053511431730855576,0.17601415224202574,0.17246654823985907,-0.00022613864337034113,-0.0822593281762879
214,-0.0007286741569439798,-0.10713494972444217,0.055185840191174805,-1.6707076134771237,0.026650831200722543,-0.02781924793426398,0.05255977769094378,-0.053723046944303646,0.1751453341480487,0.16321373309997614,5.0173812941336585e-05,-0.0797595444060456
215,-0.000203941140021386,-0.10571473197400146,0.04522219283592507,-1.4735404380011945,0.02668442193872353,-0.021432991875626087,0.047308094358199874,-0.04967248700879469,0.1698707064361693,0.1604730416894943,9.633336112264948e-05,-0.08009190598511394
216,0.00437991627374757,-0.10607981571163605,0.0349077043191301,-1.226908824636231,0.026730409802277047,-0.015767405103209422,0.041408278803964076,-0.04342441914587339,0.16384398582103682,0.16172807554338064,2.2522571134385525e-05,-0.08118734109338069
217,0.010479774108147167,-0.10678744238714293,0.024125685245980317,-0.98850891922154,0.02669487950208075,-0.01309037447868009,0.03838448691247347,-0.03953874369252852,0.16130457648402105,0.1618175021829843,-2.0305932298156244e-05,-0.08154098105714112
218,0.013974708549601979,-0.10693814981860744,0.013155594220082067,-0.7958066323317492,0.026516129327467296,-0.013732098611923173,0.03854498412493977,-0.03983430000011969,0.16204412749678015,0.15777975048723655,-9.146967080972537e-06,-0.08128416160436018
219,0.013697853892629622,-0.10674819927096958,0.0030853898413005522,-0.6446766150075567,0.026425580685590457,-0.014055585183716232,0.04018715048569849,-0.04050569206930953,0.1622095565022642,0.15117211119367308,-9.781893179468263e-07,-0.08083061694393426
220,0.013079002597334426,-0.10655575406513723,-0.00495146793574634,-0.5260058498427462,0.02679035135859685,-0.010353261365486224,0.04161556720142733,-0.03745377948727941,0.1587714767291457,0.14407453151844382,-2.5305295081147884e-05,-0.08060992259320393
221,0.015554591302996945,-0.10652124826833691,-0.010478005469589694,-0.43184314710325383,0.027486976819748356,-0.004019886295328075,0.041246595954705735,-0.03142683681078633,0.15279218175405487,0.13820357173021353,-2.7136196606685866e-05,-0.08106543031559547
222,0.021051996892068093,-0.10668547577635894,-0.013459129166097913,-0.35501992267909993,0.02728541000111198,0.00011663884610560274,0.03763631485885209,-0.026434984667671795,0.146438716689452,0.13503096589705546,5.678798495483781e-05,-0.08222360592197062
223,0.02764567769746422,-0.10697565857159799,-0.014137662704826304,-0.29091169948347856,0.024876816976083224,-0.0005844224151133077,0.03175564991544373,-0.025211680669043286,0.14094650771225573,0.13505885971148238,0.00014374047740735288,-0.08235701298005366
224,0.03371696833773784,-0.1069578979825798,-0.013631105524467614,-0.24309803506336689,0.01999281652522493,-0.0014627663215443475,0.026821203760941513,-0.02615272423589723,0.13621002866113646,0.13565951914553406,1.5235826952058641e-05,-0.07934498952251096
225,0.03848072082071853,-0.10617406287837465,-0.013198932923332189,-0.21644609736271034,0.01314357492852484,0.003387933427712197,0.025331300437392124,-0.026848170286545577,0.13193848756642598,0.13367751386261278,-0.0004014290397343913,-0.07348986200435613
226,0.041301790003616,-0.10534598429335318,-0.013254322379789681,-0.2068210433705048,0.004631401454133291,0.01428162939650439,0.026077591998997583,-0.02662928942503219,0.12714309556023495,0.12851086245140972,-0.00048275140804215216,-0.06813114190395662
227,0.04185852599970769,-0.10640768798895005,-0.013341035568020146,-0.20084011473281388,-0.006082857707055716,0.025787135740706166,0.026814159840607667,-0.02661613204427518,0.12048049484072335,0.12218078398456865,0.000560474235975528,-0.06620849032525755
228,0.04009865113056644,-0.1107493945930526,-0.013111556307786982,-0.1874392892735384,-0.01968931095667294,0.03325837940035196,0.026652220396552757,-0.02756879763092494,0.11119510983264613,0.1164869186180202,0.001960058437789745,-0.06685028202435807
229,0.03610974071217001,-0.11660944894343446,-0.012999008425418696,-0.16997284113201241,-0.03549456099008092,0.0375585526718607,0.026574738355585607,-0.027924391194964242,0.10006661989620075,0.11143363281407272,0.0007999980609068773,-0.06768740109943813
230,0.03055867282011761,-0.12120915491069774,-0.013647391789239061,-0.15644515773839662,-0.05118246007330448,0.04133847933283807,0.02822130497036499,-0.025392856022680026,0.08814155888010108,0.10644160383221894,-0.004742157842883524,-0.06754329284375178
231,0.024276770934833415,-0.12275165429663194,-0.012908731237899713,-0.1502229463343543,-0.06455702652081326,0.04614874233424151,0.03704910566041128,-0.019800714261041755,0.07686434776714238,0.1012177322504082,-0.007308856158722942,-0.06741929213763674
232,0.018297371549480843,-0.12098261461140909,-0.004251134882032086,-0.14738698323483038,-0.07475188219070351,0.051810790829939384,0.0602084248511058,-0.01429842465367268,0.0680391439610544,0.09591885404858642,0.004525806275619592,-0.06832843128788946
233,0.013933727211477656,-0.11601923828986946,0.018500954280106757,-0.14375632282089484,-0.08142666037293567,0.05792358318314834,0.10360902386832264,-0.011938846993321933,0.06273797108950012,0.09071351831240108,0.03874621935636495,-0.06904842623445609
234,0.012286686178967988,-0.11005148516110964,0.05503703728919729,-0.13844575135198234,-0.08560337257692521,0.06346269462002765,0.17057596944337627,-0.012369507123332728,0.05836618355561536,0.08552775626087084,0.0961721810836658,-0.06705407177805892
235,0.012645289729912823,-0.10633722023125178,0.10167884566628392,-0.1322769546755812,-0.09082707809224601,0.06708279253822867,0.26352271821025314,-0.013476569712609007,0.05124626771697844,0.0801626481963939,0.17665971984798662,-0.06142331945172307
236,0.013452212062839454,-0.10632715819348255,0.15165317690525063,-0.1261850706691631,-0.10041674871709519,0.06807103968787943,0.3776013597530696,-0.013801247192425715,0.04048075763847792,0.07462960704987598,0.27914300201758446,-0.05559678979915077
237,0.013671180927174564,-0.10702861542546058,0.19068428448804683,-0.12134758382423355,-0.11217651109757122,0.06726867965473783,0.503084771541666,-0.013523735177530034,0.0295955017630303,0.06945722254344913,0.40193691426165534,-0.0534812137977018
238,0.013462758472826866,-0.10497442026467363,0.20357987683412285,-0.11890259608662573,-0.12048942978720194,0.06577151871761723,0.6251365368441013,-0.013070223658706942,0.022098487198129603,0.065156403091655,0.5431491346625497,-0.05445645027945364
239,0.013150730722769597,-0.09973335424285973,0.17845349471478453,-0.11879308950526149,-0.12201329310910534,0.0650114128067445,0.7129306054211187,-0.01286674700535809,0.017475310995945275,0.06073453185157936,0.7002637619382055,-0.05407016401434617
240,0.013022962256912442,-0.09329393660060634,0.10605351945674212,-0.12000950283465465,-0.12041431293877003,0.0666880584252019,0.7331895055688752,-0.013339215450947487,0.012940742105214195,0.05400064143022578,0.8691619173940851,-0.049245179754769546
241,0.013339785472609663,-0.08737846915960244,-0.015553215243084995,-0.12139884040131989,-0.12055547411995547,0.07166731050737253,0.669248966448977,-0.014479610611516022,0.0069431508054954485,0.04371471146689403,1.0118702635413048,-0.043000513165962005
242,0.014081593289343074,-0.08240010713106036,-0.15985271197476725,-0.12134882190455247,-0.12470246183229038,0.07751189257076536,0.5210132989408671,-0.014576189119650392,0.001580282347497324,0.03250112599039728,1.0566519292052636,-0.03979689814269362
243,0.014146046129018706,-0.07841842743321796,-0.29382901161379493,-0.11819878679445738,-0.13258602855797938,0.08104105953770843,0.2938089855255673,-0.011570674537097278,-0.0005267811036791865,0.023852861057903907,0.9476666674361088,-0.04033771858206607
244,0.01219253742986078,-0.07440768398110591,-0.40054393811353434,-0.11244806217239625,-0.1434237078125127,0.08132723100139956,0.01649467561375141,-0.005807403071947308,0.00017715110151274348,0.01858630856774282,0.7158830279694568,-0.040741997793613406
245,0.007720501461277959,-0.06802398933226739,-0.4825860284418323,-0.10721931311964414,-0.15437896427346107,0.08017932944784208,-0.27505814730395256,-0.0005487206729981771,0.0001897153629852981,0.014267108092772155,0.4187819323351005,-0.03754275785404
246,0.0012672430102647092,-0.05758519567751714,-0.5437912526770688,-0.10525338117391407,-0.16202457798251826,0.0793734509594203,-0.5624610454177337,0.001345546621120026,-0.003378080471489526,0.008753833491479577,0.08352626784151586,-0.03158838022987632
247,-0.006286343728166773,-0.04615892087013356,-0.5884484347072327,-0.10583109313742825,-0.16611680887600258,0.07941848990164961,-0.8532150916203016,0.0007220204881002359,-0.009301589277148373,0.0030377416541197528,-0.30762411210557217,-0.025373330038723153
248,-0.012169621099295504,-0.03866107352493038,-0.6210019987103613,-0.1068758500572742,-0.17129242505858994,0.08031716591287467,-1.151634201942768,-0.0001210036292506662,-0.01496470234439656,-0.000665642370660276,-0.766349579131835,-0.02017285163439603
249,-0.012849092363780788,-0.037304139391026836,-0.6434673008766708,-0.10712000309366868,-0.18171619038459572,0.081417728149255,-1.4197677748037023,-7.895077149885714e-06,-0.01943623639732452,-0.0013722886427089249,-1.2267671006796013,-0.015097687232185582
250,-0.007602657125695516,-0.03924554150698678,-0.6533244961052358,-0.10681220083416502,-0.19388504950731222,0.08084898922305035,-1.5995267452847486,0.00013461952549097137,-0.024753393179781633,-0.0004026495764370549,-1.5859763627111383,-0.009221501028806886
251,-0.0013800095768202025,-0.04123457438814098,-0.6481231408016992,-0.1063678271329198,-0.20037507529519752,0.07689204923352579,-1.666144487877832,-0.0006652211789432281,-0.0330217339954429,0.0007193780473320608,-1.7896409515601672,-0.0034332333643186793
252,0.0006714901473984765,-0.04160654401413317,-0.6315952863675881,-0.10621078216439461,-0.19732483180294233,0.07095058650509506,-1.6694880402582213,-0.001356876735168853,-0.043745845990895926,0.00100291026777032,-1.8923034448924099,0.00034890079919201755
253,-0.0005101449140247419,-0.03967427552353435,-0.6112798334147831,-0.10676974242826497,-0.18971012575661886,0.06635107696801963,-1.6652307974872185,0.00035506249119905415,-0.05480450357840325,-0.00021452464132174,-1.9581860757798801,0.0011286298430348803
254,0.00016955108345139935,-0.03523495974312047,-0.5921629355791476,-0.10790215259931954,-0.1835091587086109,0.06522929958396574,-1.6507195925993827,0.005498823485590901,-0.06389709501617279,-0.0035586850834368852,-1.9828522398678872,0.0003517456242701322
255,0.005730706332062518,-0.029468984204791892,-0.5715541550975264,-0.10778422437325459,-0.17932238725417218,0.06613403100884012,-1.5812393078118097,0.011319814288040754,-0.06822286134261935,-0.009561466692440531,-1.9123528394175073,-0.0002202521939905746
256,0.011858561926634592,-0.023766114075435957,-0.5454430103744813,-0.10441712612419694,-0.1733838265854237,0.06701770260430923,-1.4273121592608813,0.014504620895223553,-0.06500462442425392,-0.01866066436753048,-1.7157639771113837,-0.00013113526201467715
257,0.012850727141156884,-0.018608894320986,-0.5115798722529423,-0.09855086816529686,-0.16319581923968182,0.06707955550360897,-1.2152300111261127,0.014506691304620293,-0.05488902364350142,-0.02970029786991004,-1.4453639866033259,-2.6396551324929474e-07
258,0.007742969218023405,-0.013624881579312393,-0.4693745855168534,-0.09352604220447748,-0.1519438607974182,0.06669385736703584,-0.9830391331521492,0.013387037491632194,-0.04228902499086648,-0.040022371089544276,-1.170316557966366,-0.00023996173935749863
259,0.000794242918752585,-0.008491279588532795,-0.4185898689401039,-0.09198055006012065,-0.14414764498290933,0.0662817089987792,-0.7619631063269161,0.012930433226584912,-0.03114097927408639,-0.0474165447985877,-0.9326547803259244,-0.0003177965782247109
260,-0.0037952803315602153,-0.003280227281653058,-0.3603601240301219,-0.09272706030603822,-0.1401199442466022,0.06626911441234158,-0.5759282368409178,0.013123048537164587,-0.021231823769214012,-0.052081866646142304,-0.7453939380101635,0.0004886204972085403
261,-0.0037610169701579998,0.001823030000042345,-0.29628083669654137,-0.09346914582782018,-0.13482048689574885,0.0670633873379544,-0.4432081404533567,0.013421071378273084,-0.010773010873050255,-0.05491880848952831,-0.6155305621402453,0.0015130231993900271
262,0.002425390636197597,0.006844125388165928,-0.2305863829170561,-0.09328212323593453,-0.12364181141578731,0.06807655180079336,-0.35334313108528864,0.013506202612030106,0.0006424972499856601,-0.05610421248201812,-0.5251078555934146,0.00043990160950208544
263,0.013709535657198822,0.012111920624130076,-0.17130523789622096,-0.09321386927750723,-0.10734833628368695,0.06728960431611197,-0.2862932665014862,0.01338451126106313,0.010720846430601581,-0.05477431775600324,-0.44796977319843834,-0.00444141294569083
264,0.024418422832282398,0.017853949359725865,-0.1255512776746788,-0.09417302136723928,-0.08896667043354717,0.0630146084639905,-0.2296737277716539,0.013118362545181207,0.017148151421810223,-0.050286950178184915,-0.37237788572402014,-0.010610470242863273
265,0.028988785078565858,0.023316711089669526,-0.0909395395721645,-0.09477242389723649,-0.07136650770201186,0.05703713018625262,-0.1832864111530889,0.01301497317101155,0.021341798149743314,-0.044375223346662725,-0.3095340205006154,-0.014003080030999975
266,0.028183005995893816,0.027284502295417606,-0.060611996808244105,-0.09254862667771681,-0.0570848378778096,0.052776716550854454,-0.14780850051874586,0.013494400884417345,0.0272971698612384,-0.039889613308327417,-0.27089450191002384,-0.01349673852774647
267,0.02660834260676877,0.028847838455276085,-0.031140595987342215,-0.08688135682636715,-0.04833159907833917,0.052037312705632825,-0.12207929472793015,0.014369271972839614,0.03750121673114956,-0.03857493464388653,-0.25226775730330664,-0.013038172050699586
268,0.027176086396624402,0.0277857937492423,-0.006800546334242232,-0.08127230895569734,-0.04377138646674225,0.053000694870326104,-0.10398804496489288,0.014096990666080025,0.04879601256814503,-0.03969712777011419,-0.24138415822514883,-0.016531676659440005
269,0.027558723181873745,0.024044281551096395,0.007503570961904624,-0.07944263327424742,-0.03967856323666651,0.053495963423829736,-0.09150624583030596,0.011092723283835707,0.05686265665609026,-0.042098447328546174,-0.22996473230792697,-0.02272285808212296
270,0.0246096803070774,0.018591129978162032,0.01256620096836979,-0.08043938028765359,-0.033708356301754776,0.05324628359218135,-0.08282248352823877,0.005722642076628353,0.06125824692459971,-0.043392535484405546,-0.21949656458586858,-0.027511784483626255
271,0.01868776742115669,0.013140726315237659,0.013345366279820062,-0.07989485059003602,-0.028223481461708035,0.053358566744723654,-0.07621604932412841,-0.00022172760461102524,0.06624404219085786,-0.04029550759881993,-0.21265545251487042,-0.02846167456899512
272,0.013600719599454188,0.008699877493637773,0.01377493003584533,-0.07502045530402332,-0.026406214593361288,0.05433819844866332,-0.07085199696730253,-0.005428712087318016,0.0755294764954134,-0.031028276389559965,-0.2083397727586541,-0.02743490249002032
273,0.012374142738825823,0.003698459114874243,0.013808835983060356,-0.06892037689099983,-0.027590353537306333,0.054439119090418674,-0.06658094622066613,-0.010408745073362648,0.08700420621500438,-0.019236089574955977,-0.20252423571706726,-0.02684092460045518
274,0.01323880962366509,-0.00393666143497091,0.012585102252861968,-0.06587450423736609,-0.02703662916481739,0.05150245305296839,-0.062870808953415,-0.016032867545268552,0.09609540548949372,-0.009660225000387117,-0.19254884482403764,-0.02709602392583554
275,0.012926356478687954,-0.014318725252580893,0.011168672426171925,-0.06639792241254927,-0.0206938182962491,0.0458324454465402,-0.05769259331776736,-0.021925384239416344,0.10091217715309268,-0.003964647560147558,-0.18114024540529275,-0.027017769117239868
276,0.011086676352592575,-0.025377887113823404,0.012770856121573247,-0.06681217228155305,-0.009403948207697372,0.04047696525997592,-0.04877728197590362,-0.026321883822605675,0.10538817181886628,-0.0003855610968012367,-0.172188683842561,-0.02600547100917063
277,0.012012808102411456,-0.03539519529645277,0.019995702045134494,-0.06386982942112285,0.004299442748634832,0.03813097089477764,-0.037127372835149726,-0.027793161981300052,0.1138618793246999,0.003003699194610611,-0.16676443940460084,-0.02585949685499049
278,0.019689721294589884,-0.04534300370009768,0.0312842051146124,-0.05808767615328897,0.017335165693951625,0.03861655473922541,-0.027498234086150264,-0.027269820958046833,0.12541240500872683,0.00803294202406828,-0.16270290783214175,-0.028869172639408452
279,0.03143740605124983,-0.057126124391680945,0.04359556432277293,-0.05132932166262335,0.025712231539060087,0.04071736218931708,-0.023925282795419583,-0.026518445147146234,0.13510560825387616,0.01647001614877112,-0.15799112169691248,-0.034718109854215515
280,0.04097834785324665,-0.07004795551003544,0.0548009346863614,-0.04518612402591423,0.025916650143975352,0.04259271200319848,-0.02498677783027904,-0.02647553876909537,0.13901906655057314,0.02793417551247836,-0.15255754523124784,-0.0400774401755874
281,0.04408526478737195,-0.07897058701658081,0.0643309648646028,-0.04078188722093544,0.019850096159728527,0.04133880801839104,-0.02728144455042895,-0.02665925277982024,0.13773817659580723,0.03837827994570929,-0.1470354511584036,-0.04206956907450627
282,0.04203118769483998,-0.07905639886579932,0.07179840386197316,-0.039034783656048275,0.012433967337292847,0.0343740866272671,-0.028357219266981554,-0.026530469961777273,0.13299901859066152,0.044060008164644046,-0.14176581911732777,-0.04143785507326152
283,0.03698724574367989,-0.0726152803931901,0.07710536527898028,-0.03930596439784883,0.006971380384332124,0.023264949671897586,-0.027389491160150378,-0.026341649667396605,0.12693482870504535,0.04769158090053105,-0.13658824434271424,-0.04022875442775357
284,0.031159345947459838,-0.06598158721166465,0.0803170586695215,-0.04007997725135405,0.0023282293722031804,0.01191410878148703,-0.023841932850098082,-0.02679009219158786,0.12221089694393278,0.055616791269005615,-0.1313188767726113,-0.03978280976724826
285,0.026783933997793583,-0.06365951462061523,0.08152042805002871,-0.04029230590765617,-0.003246129278834554,0.003600302496627317,-0.01841316658880129,-0.027874432675840187,0.12104641341490714,0.07096771623636554,-0.12601954660701906,-0.040255440017926046
286,0.025487760869231588,-0.06513948102569718,0.08085563407673424,-0.04011033679820589,-0.009262035155332877,-0.00013604406714969866,-0.012488043106871306,-0.027712032144622267,0.12185965679564327,0.08818075219047876,-0.12088835680084555,-0.041539121455616834
287,0.026130466645254497,-0.06909181033263447,0.0785816089295447,-0.03989571492411021,-0.013256738134851554,0.0017995700520285758,-0.007056388545375947,-0.02426971971802223,0.12127590424485378,0.1005333848316945,-0.11592805492878099,-0.04215175206879856
288,0.026811365923968496,-0.07434586387218434,0.07692959482761502,-0.039841135457882294,-0.013615070562733015,0.007658722480509443,-0.0020627295905832057,-0.018393031022324067,0.11726486426418546,0.10630334939240489,-0.11063012714834529,-0.03987761432166308
289,0.026723405180589577,-0.07986848351614008,0.0798358053277026,-0.03999324421391565,-0.012815354486046412,0.01323541434519798,0.002724571242605481,-0.013416011088907134,0.11105631513853703,0.10809086690253647,-0.10448957844079787,-0.034138467614507256
290,0.0266086576687716,-0.08491336834859459,0.08962313917889438,-0.04030418589078645,-0.014423697968107147,0.015203554675558333,0.0076823586800054584,-0.01189276469836091,0.10434259118066008,0.1083303757810921,-0.09843860038131437,-0.028411079141876277
291,0.027141862901672507,-0.08995076992438412,0.10142080890300184,-0.04033962713690495,-0.01947859779445495,0.01437730283622872,0.013308058713498563,-0.012663515274753942,0.09851133513462129,0.10812857308091459,-0.09460283590611826,-0.026482209008176195
292,0.027520718851708755,-0.09574821984958876,0.10853788130970464,-0.03958830518982989,-0.02552799095846524,0.012678541233346097,0.01965362021239184,-0.01359632070560106,0.09469358606416116,0.10821647717278232,-0.09424346903345068,-0.02749324824197643
293,0.026237168604557923,-0.10185606567808593,0.10898117515011803,-0.03862850642340991,-0.03030047958424751,0.01173999753286355,0.024952096996311856,-0.013680880753266317,0.09360882269732843,0.10859734660267192,-0.09497427048476045,-0.026958925593708674
294,0.02235622132923152,-0.10622096500423969,0.10694700277492726,-0.03947403939947274,-0.03484293228964102,0.012813406808312175,0.027049972537022363,-0.01338471742655836,0.09414668986797128,0.10831559679593329,-0.09354646232484257,-0.021958726481197576
295,0.01628826197347022,-0.10716210360516465,0.10642701313812973,-0.04375431063648064,-0.04171987534865127,0.016400036174587317,0.026342308254180546,-0.013214905698064607,0.09469605091795552,0.10674183566722108,-0.08880551764744439,-0.015742177158162167
296,0.00858287618102843,-0.10640453850215148,0.10698115150149515,-0.049690069916730535,-0.05191196270299537,0.017882039018873964,0.026360309981934595,-0.01324517180845562,0.09458056689427098,0.10601408460735705,-0.082173983475239,-0.01284580475158295
297,-0.0010090784419483382,-0.10712126380881679,0.10626532264082028,-0.05404375167456534,-0.06289711938190949,0.01046639768194089,0.030120765774017108,-0.013362537360538926,0.09450724584996953,0.10944949555369514,-0.07524818473461567,-0.013629005019050235
298,-0.01336243594014601,-0.1096997478530618,0.10269186819135298,-0.05504657246074961,-0.07180977257122333,-0.008293031272298626,0.03611210946453496,-0.01345333729546873,0.09512611517715655,0.11847785952324559,-0.0697220994248539,-0.013750133933747308
299,-0.028722044625391824,-0.10885379244643396,0.09622589313824259,-0.05392695057225534,-0.07749182959972303,-0.03198918136142477,0.04104896271549248,-0.013403996605981315,0.09558585115528151,0.1306831416598307,-0.06731014726552326,-0.009624220485160543
300,-0.044761928223234985,-0.0994141144666017,0.08709465954636784,-0.05227463570439722,-0.08003527168847381,-0.05347913330939032,0.04276199543788757,-0.01313256371997372,0.09425065891717635,0.1432587648965541,-0.06792210954605957,-0.003374166036438229
301,-0.05857211328686587,-0.08605912349351391,0.07642662271980963,-0.05164988071145562,-0.07999907526632753,-0.06975945523767704,0.041141367013161866,-0.0129435783104065,0.09127465006852971,0.15432966644403892,-0.06815029222938558,0.0009028165576794857
302,-0.06924033663622926,-0.08005765055842937,0.06595313501734583,-0.05359290411893236,-0.07952992767423661,-0.08059718812712606,0.03645182649860486,-0.013400084187964852,0.09162508740486199,0.16264451481914455,-0.06465528297589938,0.0014419253395264143
303,-0.07837686416967356,-0.09093577697257477,0.05655215283332259,-0.05869167748628714,-0.08094529522457042,-0.08562166987149168,0.03057116513055782,-0.014510311423041293,0.10062385117466806,0.16785943184683033,-0.05856000597591664,0.00028103194977799513
304,-0.08636932070621416,-0.12221161670660183,0.0463149828045957,-0.06446574798189054,-0.08092611131024223,-0.08385434137911715,0.0263406662338349,-0.014478720572087848,0.11463921862392312,0.17251883206725713,-0.0536550828695564,-0.00040088823636370076
305,-0.08399290943259516,-0.17610942004727367,0.03289036918658275,-0.06790946112557303,-0.06968376190843688,-0.07412256400666865,0.025445797670641705,-0.011257360779704432,0.12172068028264277,0.1794629050395924,-0.052397898925732767,-0.0002710561670080505
306,-0.05799109934072557,-0.25280638816548523,0.016746182473711554,-0.0682151228020565,-0.03925207789339927,-0.05353583088072306,0.026291799117728644,-0.005437583242626626,0.11147572904038586,0.18471296884667632,-0.053403253282779006,3.9923876547618354e-05
307,-0.0021442464079310685,-0.35038805975370996,0.0012308594010339707,-0.06682090158136192,0.005061868166323803,-0.01744832769927978,0.02680118784898541,-0.0003075621252851043,0.0830284352363412,0.1773228596962696,-0.05466245651868466,0.00010940627394079477
308,0.0752237460613372,-0.4660599420092842,-0.010884719351142078,-0.0652733181103142,0.0530323003955069,0.03868221016739524,0.026562195726385813,0.001426352262296881,0.03850154697932287,0.1491671947634783,-0.055025404963300585,3.281391771360175e-05
309,0.16520270249970112,-0.5929208098319557,-0.020529625876783544,-0.06515482886973087,0.10203059646516541,0.11844203485962415,0.02664676412565685,0.000736669513563866,-0.021053127453472327,0.10851365094158097,-0.054106766929338385,-2.6506865020520206e-05
310,0.2745757132430715,-0.7226556293437585,-0.029822751923706543,-0.06803036112920587,0.16321120092882932,0.22509109565343807,0.027654946183056233,-0.00022266489609625134,-0.09633790305195371,0.06882623332415674,-0.051411413281117466,-2.2735946126597713e-05
311,0.4210831063176845,-0.8422845947824478,-0.03994741430831979,-0.07367551346340236,0.24630244806263238,0.3609760179898339,0.027887932759102615,-0.00032592723833722783,-0.1872860235676366,0.034814697309410295,-0.045844940121026946,6.43776480472416e-07
312,0.6101337556870545,-0.9315452227190122,-0.05062505062328304,-0.07907192465666531,0.3301775392864348,0.5270175811992319,0.025075822207474143,-5.393067083912708e-05,-0.28440358283487904,-0.0024850761484331435,-0.03621629378344705,8.48892793720988e-06
313,0.8033279631224435,-0.9725578177414571,-0.061442563377999915,-0.08133823887485414,0.3749925008798888,0.7195744412416393,0.019346008960738584,3.835958453500194e-05,-0.372722958040219,-0.05194005313930358,-0.024065792774813678,3.73047799586111e-06
314,0.9532371170411222,-0.9736890438212646,-0.07192139826338849,-0.08089839205691539,0.3536862283890182,0.8963761318627506,0.013991210279371821,-3.453014481519701e-05,-0.44249566909239785,-0.11123120447155907,-0.014540163424857715,-2.3284818345751847e-06
315,1.0274101920940506,-0.9567889624873508,-0.08154793039819808,-0.07987593810497728,0.2775653051715846,0.9953482097873212,0.01198617555439535,3.439986783330035e-05,-0.49976874447016334,-0.17228548645094066,-0.011984860410772699,-3.7728411113113696e-06
316,1.0102688397653772,-0.9338509531737486,-0.08936408711677439,-0.0796757236690983,0.16483298066559315,0.9821608266229434,0.012580884312096478,0.00030957678384226523,-0.5532082715881407,-0.22879595681651793,-0.013443639531588492,-5.904478561743667e-07
317,0.8942248902062708,-0.8926232604108847,-0.09333148426519373,-0.07992034152051714,0.031124633130146545,0.8903645325663763,0.013449238432994342,0.00025954697175000667,-0.6038314742182286,-0.2788669703438322,-0.012879913225656344,5.7280556342211265e-06
318,0.7146435766555471,-0.8179226875394399,-0.09148389804647136,-0.08000322639828379,-0.11037699769386095,0.7630748323523707,0.013349329339829465,-0.0006410147532409389,-0.6448169365445882,-0.32126618402975393,-0.007580516368448023,7.092176479640727e-06
319,0.5228626243764752,-0.7052678310337103,-0.08550436345451118,-0.07989066000011076,-0.24540374224937536,0.6346846939938036,0.013195590304194987,-0.001431383843633368,-0.6694504684373629,-0.35484696459138027,-0.0014294988490669795,-6.5441347431125504e-06
320,0.35843565307460795,-0.5586607580319853,-0.07996873538635853,-0.08000302800467249,-0.3538734746296315,0.532672598534654,0.01398195329833152,2.717698092830552e-05,-0.6736566914831512,-0.3785306222679606,0.0012979685905537823,-2.6248303354645064e-05
321,0.23930183032997587,-0.3885870780180052,-0.07831744704595844,-0.08051333205287392,-0.4142549816021976,0.47502948986627974,0.014691551995887333,0.004952519554220655,-0.6543570718800024,-0.39156556947290816,0.000767872894075029,-1.3013213793033399e-05
322,0.17863026959604045,-0.22992285691985823,-0.07925060150155806,-0.08058062830363996,-0.4233384653896944,0.44346605008608214,0.01301575829151737,0.010842972686086794,-0.6145525751820321,-0.394469311409268,1.7189328967061394e-07,6.062196655040161e-05
323,0.16235532476892928,-0.1225967029450597,-0.08035095650410369,-0.07912129759505183,-0.4053877683948278,0.41128720568988775,0.007883385005096978,0.014362281654267154,-0.5682523526175579,-0.3880289823980751,0.000774742372820463,0.00010052633145420862
324,0.1594831662351268,-0.07680003875080141,-0.08048654586980185,-0.0752045421862546,-0.38457834480852165,0.36647778378431345,0.0020434583030595928,0.014581894926522877,-0.5295127400345769,-0.3717079606808076,0.0009649958627478052,-4.8375383838811094e-05
325,0.14626171916339886,-0.06680306081749189,-0.08007796097487911,-0.0680841659632489,-0.3653165522460142,0.3147552926404936,-0.0011636564123034922,0.013481661656651954,-0.4995163328363713,-0.3433705847560486,-0.0021435906304252583,-0.0003394404619229801
326,0.12193012513382975,-0.06716850421644298,-0.07962733285715336,-0.057507662535276644,-0.3421148865734947,0.262213145831992,-0.0011693624565639418,0.012941247927816467,-0.47117117992387153,-0.3018321089140412,-0.00807576140152216,-0.00025569302222098176
327,0.09020047286963348,-0.06798833604063685,-0.07956528514188645,-0.046295707431110056,-0.3134651659095686,0.21059164384732953,-5.2950714293104224e-05,0.013095905708280344,-0.4386899189039856,-0.25257081773103623,-0.013309045691076367,0.0006793651383284456
328,0.05664753771970994,-0.06546119593333166,-0.0802864238545609,-0.03845716963658877,-0.28759310942250815,0.15994592606166977,0.00038674243629201654,0.01339857900220076,-0.40109555566759014,-0.20364699101197178,-0.015016475651740593,0.0014310593223702025
329,0.02871889029317552,-0.05742778135721786,-0.08136188305503882,-0.036229219329228006,-0.2734922561063821,0.11262335828719945,0.0001890327463345277,0.013495914494029617,-0.35845273916000286,-0.15988377091557943,-0.014260000012755148,-0.00015275680334908245
330,0.012243353204240042,-0.044750188956844385,-0.08083437595371483,-0.03855510001004823,-0.2697433168609278,0.07523363959648222,-6.677162591033688e-05,0.013397103276494649,-0.3119619636619925,-0.12008404589723974,-0.013234740537681077,-0.005197882660640967
331,0.004033909304064369,-0.028753682150092254,-0.07687955049142438,-0.04393342901732697,-0.26665412730496213,0.05394746075327011,-9.289129092518893e-05,0.013167285880817746,-0.2641077400512746,-0.08271255247953772,-0.01307705961750444,-0.011153369794759123
332,-0.002046615781525748,-0.012225596210390101,-0.07091705803313779,-0.04992317797295173,-0.257123918741335,0.04514811195511403,-1.483313407234189e-05,0.013051086541089604,-0.21753695621706795,-0.049663661917928016,-0.013422558461960575,-0.014756032398653257
333,-0.010380245035357628,0.0011520559866118878,-0.0663529830981581,-0.05350902102029222,-0.24526047422288427,0.03922491747494498,2.6969861645386103e-05,0.013403647535574057,-0.17549435399639976,-0.024931308386389243,-0.013807296432083034,-0.015076521415488712
334,-0.02249130174885109,0.008964105732693363,-0.06533323677356473,-0.05328905645881602,-0.2378282828365151,0.02950786779573919,1.697581469829445e-05,0.015215561083920302,-0.1414462255150955,-0.010556259305848545,-0.013876732431014248,-0.013674627535131134
335,-0.039143496984580514,0.012538820411806682,-0.06623369486724223,-0.05260506874918526,-0.2370567834838357,0.018181864706514103,-3.163853346673485e-06,0.021331507306551915,-0.11694294257857886,-0.002777392606904774,-0.01332988380358859,-0.010424956528260185
336,-0.05636595986025836,0.013844494032219922,-0.06682785239383501,-0.05545233759214415,-0.23952899630899419,0.008930966742032411,-7.134682896658162e-06,0.03499011263010366,-0.09968771004470489,0.0030794787402357885,-0.012452246705305082,0.004410133562843839
337,-0.0675761900182547,0.01401160214661681,-0.06659913950760656,-0.06153027830451108,-0.24173251738187895,0.0031537124167764314,-1.9380239883632646e-06,0.06059463888390656,-0.08697204473850603,0.008770301200335116,-0.012778344888837403,0.04362750143878353
338,-0.0693951776238258,0.013385284388223404,-0.06663380792414546,-0.06651154290691559,-0.2418888813037958,0.0001062895311729848,1.7807475974974463e-06,0.10364002833082443,-0.07672957292899846,0.013315584793586965,-0.015852546622294465,0.11261010418544878
339,-0.06717200823587877,0.012430768376303532,-0.06759862582300734,-0.0671619011029094,-0.2389440737010367,-0.0009904982255741234,1.4192474830776923e-06,0.16925142297589119,-0.06735002148357146,0.015715713365102434,-0.021299173327493787,0.20530913400980558
340,-0.06747584524810839,0.012324647031322156,-0.06788361651704569,-0.06615264120373512,-0.23323422010670064,-0.0006922098994009147,-7.264632150990343e-08,0.2606055181503924,-0.05752056625985848,0.015375126193836188,-0.027417152903641637,0.3149308769660761
341,-0.07231648220760793,0.01443285509609006,-0.06525124734317614,-0.0678330327688982,-0.22783354524503147,0.0005005845357473825,-4.4685841511383354e-07,0.3801548716853738,-0.047002711770292104,0.011845390259882098,-0.03292186412208158,0.4365931294750601
342,-0.07961231773167377,0.019108492380531666,-0.05965477757392942,-0.07331622168177378,-0.2258201596943472,0.0015478560092726217,-1.227945502020553e-07,0.5231100544287836,-0.035827057861744754,0.0060317650334957285,-0.03798304449943585,0.566295025926717
343,-0.08709767516319007,0.025256315595881325,-0.05418032148125196,-0.07908750518302883,-0.22647738186092603,0.000638164403101992,-3.1825877295316343e-08,0.6743261120372877,-0.024678262162842187,0.0007751912731759191,-0.04305652804245789,0.6861255199219833
344,-0.09232604600567298,0.031668990638393416,-0.051751417897918095,-0.0817265543855841,-0.2265858141660162,-0.003684072947793913,-2.671034037129714e-07,0.813973648503052,-0.015056822826283602,-0.0013375842819554609,-0.048308502069569756,0.7467263559001084
345,-0.09284103757653552,0.037133681604097926,-0.05214167323610451,-0.08132809153002912,-0.22363574331499267,-0.009633381427396046,-6.302133744298666e-08,0.8918719505262314,-0.008233433671795852,-0.0008662262138066999,-0.0536084107762477,0.6979305788953237
346,-0.08832721795445118,0.04043860394150571,-0.05364528951093511,-0.0796382900511032,-0.21754668622276144,-0.013908717700771919,9.941465414913317e-07,0.8437496785146371,-0.0034537137497492876,0.00015452464891399108,-0.05884448260356326,0.5371092781463859
347,-0.08156914308294969,0.04111915176222131,-0.05471666331805123,-0.07834050207784028,-0.20874999522962415,-0.014736770813865208,1.3012445121536937e-06,0.6406234255859946,0.0009215437580332431,0.00039941648660203876,-0.06407138555809712,0.2958474640638228
348,-0.07533456933481071,0.04036626651173828,-0.05418414368291374,-0.07895767235092149,-0.198253481842035,-0.01374876809286351,-1.324915281203587e-06,0.33187998713512606,0.005940061965154285,0.00013419323940583772,-0.06939471046414267,0.010589873933994645
349,-0.07026104958230071,0.03954520500601087,-0.051033201145384885,-0.08280649071997316,-0.18766201482144265,-0.012933977358312278,-5.147336958434861e-06,-0.023037296367157675,0.011323014573375334,-0.0001758573699696565,-0.0747711861817187,-0.2683057482944092
350,-0.06594046850645961,0.039362981253764064,-0.04571826086448933,-0.08866588650298302,-0.1781279127357628,-0.012922132980286986,-2.4626944393408173e-06,-0.37105004825902654,0.0166347159089605,-0.0002580569126344653,-0.07993095998890795,-0.4888656558760519
351,-0.06170190271370098,0.04004829334931026,-0.03976108365834718,-0.09347087975833768,-0.1682112251047146,-0.013355115144530286,1.2040800718882891e-05,-0.663705554924153,0.021784117707779622,2.0307748641183484e-05,-0.08468484379614934,-0.6318146664005178
352,-0.05626482520496172,0.041348147267160636,-0.0343401215054584,-0.09500320139970723,-0.15562869015289535,-0.013817486136368776,1.9720263363826482e-05,-0.8656172695856708,0.02695047286314523,0.0005767231340595687,-0.08966923106959698,-0.7118282213266236
353,-0.04850214984191583,0.04134508733272135,-0.02933548846435572,-0.09418396518300176,-0.13999291017099708,-0.013769823253844531,-9.73923559554913e-06,-0.9872124110745476,0.032244627149170535,0.0005791031194483833,-0.09592282612085674,-0.7440263175450024
354,-0.04113708312996751,0.03786090835651535,-0.02434853407727252,-0.09254659797019146,-0.12400649132651198,-0.01269772372160722,-6.681028811047589e-05,-1.048755799895413,0.03746124151821514,-0.0008909625264905141,-0.10312133372194542,-0.7376838084064641
355,-0.03997546542115278,0.03169377457942586,-0.019201906739847042,-0.0893689095283737,-0.11043885014632096,-0.011546995384639193,-5.026691533060895e-05,-1.062730854536816,0.04232365780883727,-0.002544791748635692,-0.10780341717693855,-0.7001919450130953
356,-0.04857068087992559,0.026939326133557585,-0.013963428590740578,-0.08142974463921628,-0.10002715310720993,-0.012881191945523158,0.00013307571024331755,-1.0330000927058636,0.04705649371442144,-0.0006484974276240799,-0.1064153706981357,-0.6386823450570864
357,-0.060944092659283564,0.02675767848776986,-0.008714087947934946,-0.0665697269652826,-0.09239911137539399,-0.01843693858304252,0.00028137628138625876,-0.9634645817598672,0.05257466609282454,0.0076507200818411725,-0.10030057036465705,-0.5598985562272697
358,-0.06883206849519077,0.027947774341273223,-0.0035373691986796568,-0.04947797300179777,-0.08690663174521245,-0.024715199414379874,-2.582406616601045e-05,-0.8608200412677279,0.05984607107787655,0.019411745875965513,-0.09443144626440177,-0.471082418487229
359,-0.06944619080346395,0.025081219481146524,0.0014846048432175017,-0.037182494598047885,-0.08220730881782555,-0.02639586236539707,-0.0008375156194568706,-0.7328422114366346,0.06986048046603942,0.029659010256807106,-0.09252936991091175,-0.38371485110066483
360,-0.06706410966008665,0.01590237577582754,0.006444502158628936,-0.0287095504962556,-0.07693350108945768,-0.021714775570500826,-0.0008629697058404381,-0.5937912185944418,0.0836140202184385,0.035861106666486356,-0.09356105891591872,-0.311278199979572
361,-0.0658862070974323,0.003544386324118674,0.011731605632420379,-0.009501638710951846,-0.07127510679511012,-0.01494601191918224,0.0014391652020945666,-0.46892885262080675,0.10055615400147959,0.0396385937687999,-0.09544720745039866,-0.26102484685915284
362,-0.06622774679469244,-0.00855350356021868,0.017639702967554977,0.03472492279793413,-0.06676439892964829,-0.010641783650034105,0.006317645180209954,-0.3817198418085304,0.1163032591557363,0.04299070253380814,-0.09640268109120988,-0.2265015825613942
363,-0.06672044713556927,-0.019046013809718612,0.02326143917096641,0.10287066539080382,-0.06399702406145963,-0.010381121682464403,0.01260100066443676,-0.32794359079481517,0.12617687032838198,0.04768381099204355,-0.09496556314947344,-0.19980892733723063
364,-0.06662432853790799,-0.027761156092701546,0.027017649567978086,0.18522446390808228,-0.05928985015967509,-0.014075078383024428,0.01903899343606813,-0.2878774340794276,0.1306865469430322,0.055351393141958104,-0.0902249531929693,-0.1779224691202255
365,-0.06653992173552983,-0.03448995068309289,0.028021443924441385,0.2766755064271988,-0.04792070443192803,-0.020558538082324555,0.02434759883930544,-0.24813300394108978,0.13483207469287098,0.06628822740603325,-0.0842627477179587,-0.16123196797450298
366,-0.06713539155140033,-0.03889074286108999,0.027245469238344398,0.38459147274951044,-0.03060017018566327,-0.025855098246067052,0.027246630305390398,-0.21261064757298703,0.1427606275637817,0.07723512597691481,-0.08017795446108017,-0.1494754595900444
367,-0.06770739967951034,-0.04065726120411408,0.025963589559249798,0.5165034126053494,-0.015378907231510114,-0.025902251939067724,0.02754108906886204,-0.18765172423922588,0.15393625671716896,0.084584699695617,-0.07939941176584903,-0.14001844816403444
368,-0.06657366159489679,-0.0404997832767974,0.025373732962238292,0.6464015851414421,-0.009562525807499498,-0.02331747310972096,0.02681027837385547,-0.17250032240536273,0.1664531027372302,0.08891901956921776,-0.08062351153237361,-0.1298534972879257
369,-0.06261648673987914,-0.040002609672621106,0.02660853820406941,0.7194380688120441,-0.01108181050660146,-0.026461645220353873,0.026614027128260026,-0.16029833753105693,0.17833096981506702,0.09442223059203522,-0.08228806689361395,-0.1186379894602123
370,-0.05681309019352959,-0.04030480207391861,0.03044454343367746,0.6898886744302416,-0.013670591626723015,-0.040821207621393206,0.02685100999965139,-0.14553250780672283,0.1874768148523005,0.10411584909240337,-0.08277559940227742,-0.10872288816178646
371,-0.05059516946271973,-0.04051684493704063,0.03614245471153116,0.5551226918637286,-0.01367910898968477,-0.058772134346244995,0.026538661201608554,-0.12929983003852108,0.1920026042840465,0.11554017749024566,-0.08044285469723879,-0.10198927762816543
372,-0.04498262493844607,-0.03926405427717945,0.04255666459467269,0.32420822035377295,-0.01312605300118542,-0.06938126446313586,0.02552145121927681,-0.1144391545037696,0.19199828458717136,0.12482992545766278,-0.0749539078085771,-0.09737254715257837
373,-0.04052128130200521,-0.037460764294367545,0.04851647350531666,0.012784383358671943,-0.01445775827358381,-0.0696288317364202,0.025713409761770858,-0.10270926733518274,0.18862169444571272,0.1305515952680479,-0.06921287155756316,-0.09290958189191988
374,-0.037788437360394056,-0.039020817457242035,0.052818307283734704,-0.3548992745414654,-0.015986361044511187,-0.0668647326522008,0.029158667438324747,-0.094453626837995,0.18323852034847488,0.13445830054003835,-0.06641939663176737,-0.08766622586576084
375,-0.0377201192240645,-0.047169530735922775,0.0544845541163381,-0.7517261445454143,-0.013062981385057093,-0.0681891586875056,0.03499409481898721,-0.0895480353433727,0.17775953400187408,0.1384102398003884,-0.0666657206739525,-0.08221036100763639
376,-0.04137204156801779,-0.058873168713846034,0.05413944778622126,-1.134545948532165,-0.0031499721899464757,-0.07402055066652534,0.040044576375512446,-0.08525815169713362,0.174141554973337,0.14350468495656107,-0.06757292414816295,-0.07711137218549988
377,-0.047892193312425266,-0.06843996583567158,0.053091820276406076,-1.453483381037651,0.008602558271064306,-0.0819143557550696,0.04186618193599526,-0.0777527911287274,0.173340772812004,0.1505097285483288,-0.06740130013457835,-0.07203105773156175
378,-0.052857324062912166,-0.07339004055338644,0.0524379822160791,-1.678677718436741,0.015520812841410972,-0.08928225155074705,0.041079500694840704,-0.06616888686373587,0.17535801653042254,0.1598569446476086,-0.06713812899537379,-0.0662134728509049
379,-0.05191825218228946,-0.0777555812461118,0.05283944735680678,-1.820772002123328,0.015898742311350682,-0.09326735177724049,0.039059053818741,-0.055650755764990206,0.17992752794942907,0.17130029099179747,-0.06834722906996626,-0.059817682067254276
380,-0.04603828910857195,-0.08592993296000091,0.054919213631145644,-1.8944359194049603,0.013610109635692553,-0.09133582775250859,0.03767504510497652,-0.05152739623272465,0.18558594554345192,0.18433182389486621,-0.07005777181308166,-0.05495979535076862
381,-0.039557144631617254,-0.09716445000047542,0.05946885465167611,-1.9039579877903707,0.012304495161591981,-0.08526634144503029,0.03938183848770831,-0.05258272153037384,0.1904795293543341,0.1962569252667737,-0.06831185675128301,-0.053724288972863056
382,-0.035195627237261815,-0.10728834548308848,0.06739179937608088,-1.8467179403591343,0.012539736084993177,-0.07970758882257838,0.046194671211102566,-0.053244667733942555,0.19281176074259618,0.2029262851696104,-0.059994501130449816,-0.05464663185705896
383,-0.03041687722219478,-0.1135217603376911,0.07853290191455066,-1.7234440262820394,0.013732039545305351,-0.07798740906496676,0.057254020581104195,-0.04960105814372161,0.19088277660316447,0.20259456531042636,-0.048160847103972844,-0.053844183954020124
384,-0.02182684937666034,-0.11773975012303557,0.0893389404213849,-1.5459935994928837,0.014868639972437548,-0.07903525251794966,0.0706111462169723,-0.043310520181950314,0.18332309712633546,0.20130293425976586,-0.038152332403238017,-0.048990528017426205
385,-0.010211207392739426,-0.12264457407090779,0.09570379519748223,-1.3288654205617398,0.014179850030489544,-0.08090937614839624,0.08358770536460314,-0.037073744510178704,0.17213454062231306,0.20634898206243335,-0.032422847240438084,-0.04286778776157259
386,-0.0006499795526548838,-0.1284962700343866,0.09651104405277676,-1.0964381612793486,0.010112234252528971,-0.08185420287101627,0.0922264116020912,-0.031902610042378564,0.16133318268021657,0.21793056082264126,-0.02834372220537473,-0.03915467751960952
387,0.002670696906165792,-0.133072843302354,0.09368269802001368,-0.883131459253479,0.004170257701270702,-0.08030335628024154,0.09293962576642827,-0.027092654254833745,0.1539332591448091,0.22903005032114565,-0.023106194789078334,-0.038870864380648476
388,0.0014892575776335043,-0.13457495122676852,0.08909873704394343,-0.7176236685361369,-0.00032781128140939514,-0.07534425504513957,0.08709632651520513,-0.022006593126809658,0.14977926815322412,0.23360581430726138,-0.017233069683538473,-0.040419444536009486
389,-0.00047275627550123474,-0.1339761622607739,0.08371430179318391,-0.5964307682758986,-0.001321207456864374,-0.06941699123520427,0.07890007770816589,-0.016755227006504395,0.14810313682846404,0.23236444164029035,-0.013151432828070577,-0.04208788340717721
390,-0.0009906861675530486,-0.1331332011639826,0.07818095118120673,-0.5056976926044306,-0.0004277107346483521,-0.06600556403844517,0.07184715618728633,-0.011685501699547834,0.14803226704792802,0.22818243756526985,-0.01225141425943156,-0.04213875535985962
391,-0.00033204317975630833,-0.13302643580350942,0.07289829275411984,-0.43404520029524,0.00016128778879882512,-0.06609324020796051,0.06745206195011405,-0.006780397405962982,0.14858398450283122,0.22304846813051996,-0.013088553256818092,-0.03887341387660205
392,0.0009250756443958377,-0.13327466851128972,0.06787492750895838,-0.3739468926600146,-6.252928795335243e-05,-0.06677915400221669,0.06674004119789236,-0.001457516984263218,0.1488955414458909,0.21757078404110886,-0.013818961096907304,-0.03281180150778354
393,0.0014686832145354204,-0.1334233353764018,0.06304816348363282,-0.3191040763325041,-3.4304453594054436e-05,-0.06506446343301452,0.06790432123438589,0.004715597869406442,0.14884045249663638,0.21219461791160382,-0.01382143778262915,-0.02762438691464069
394,-0.0004266184815030465,-0.13339864495250522,0.058030521531310525,-0.2709582905489856,0.0009071837835109842,-0.05999876085509466,0.06672204757283914,0.01045389122913474,0.14856140573989662,0.20698507823183931,-0.013517896401223247,-0.026527008560851818
395,-0.00541544644977508,-0.1333216565715767,0.052270592313766115,-0.23490493585914754,0.0011999523668774661,-0.051682664650484614,0.06063950622411845,0.013597658710528454,0.14829146646407612,0.20181279764046217,-0.013305735270558887,-0.02754092368387664
396,-0.011176650651616358,-0.13328456456065474,0.04595665664675477,-0.21354624114587048,-0.0013432134719978063,-0.04094011572513423,0.05439857917335429,0.013454169720226805,0.1484313742170271,0.1965908098575601,-0.013340261326949062,-0.026350827213405092
397,-0.014960307519826124,-0.1333059519407506,0.04106880612240619,-0.20265302665773308,-0.006841232064361823,-0.03032350339444346,0.05447442686178476,0.01289502001480723,0.14929412376008527,0.19133848336572545,-0.013703036717780136,-0.021102011409956996
398,-0.015630609897655644,-0.133387955232772,0.03964566670062114,-0.19705791381880197,-0.012378992939370285,-0.02247489758248996,0.06107102433858358,0.015130176178878829,0.14991845091055994,0.18608940932743834,-0.014089613413246965,-0.015065155314941216
399,-0.01353193170391469,-0.1334467463871789,0.040515285707024534,-0.19274018462647385,-0.01512467203131371,-0.017454679421739314,0.06646367830593457,0.020426357395256372,0.14850099332628872,0.18085342043347405,-0.01370751084073854,-0.011881843914696802
400,-0.009179827225650455,-0.1333307209859185,0.039974416252636896,-0.18658317673282052,-0.014911767006677842,-0.013287765807859763,0.06531465738494144,0.026729757189357266,0.1440142864647986,0.17562161763369594,-0.010741553495069346,-0.011984840572239792
401,-0.0036443255819188698,-0.13301698914487928,0.036306683909246205,-0.17665263078978,-0.01288135037636575,-0.008405854508032641,0.07143176129078234,0.03235830138401065,0.13815391880839237,0.17038664149157567,0.003178714698894745,-0.013679104578383578
402,0.0018538327859268216,-0.1329889390083511,0.03576697721774897,-0.16550448800114656,-0.010737945872755316,-0.0030322329856739467,0.10628133470672638,0.03731557496241806,0.1331286527458589,0.16514907353777503,0.03901828881363132,-0.015227533880363669
403,0.006848592809712133,-0.13381460742381623,0.046358488929678594,-0.1567060112549164,-0.01148681997382886,0.0021922145874478946,0.17884893440785277,0.04201445839208733,0.12892816057103726,0.15991137863655325,0.10042248115353189,-0.014880910600645983
404,0.011991031872061284,-0.13481282016395638,0.0700548745018638,-0.1512980126510228,-0.01804206087574009,0.007172517737165818,0.2744805041204033,0.04689217258572282,0.12296412901074336,0.15467466530716278,0.17718283679017754,-0.011018874752614871
405,0.017842081439705646,-0.13380155734659765,0.10158569347164409,-0.14728593839810503,-0.029104075762178862,0.012469585702118808,0.37710466201414095,0.05241518191387997,0.11316452032404099,0.14943841250876522,0.259593312416519,-0.00481746012809936
406,0.02344099355523644,-0.1291317480238252,0.13447366151463502,-0.1427579421446347,-0.04009761930081426,0.018444239818942845,0.48385309529325915,0.05877071077311047,0.10182774916106532,0.14420206202700184,0.3602183340388617,-0.0001315456967069563
407,0.02706600698208635,-0.12308841518141926,0.1573217375668527,-0.13746305460374775,-0.047433274338502744,0.023945668562181933,0.5999632945492106,0.06436847462968714,0.09300960932264872,0.1389654312324769,0.5052990163241882,0.00027862759112665743
408,0.02785871341496914,-0.11946620083729768,0.1568376315552698,-0.13179849214531217,-0.051678348401295385,0.02724481138873144,0.7158842474649334,0.0669454715632309,0.08821476203415414,0.13372848651338556,0.7004106440216727,-0.0006992112665183863
409,0.027082777466108803,-0.11959801464360681,0.12205705869065478,-0.12622314638299414,-0.05442557297214648,0.0277415269224268,0.7789551181560761,0.06629981542042453,0.08366622295261486,0.1284914554360097,0.890786561473494,0.0013977358835793642
410,0.02626917224947033,-0.12026650940746597,0.046320771177794,-0.12130703281148182,-0.05787682374963483,0.026921885549497804,0.7313042204040906,0.06603689966963219,0.07528816931905645,0.12325504703083644,1.0122048862350228,0.007357023142241339
411,0.026118899425253275,-0.11805686355128847,-0.07441429345556028,-0.11745259227583647,-0.06497610123031981,0.026379904174118306,0.5650410074641308,0.06971239274454533,0.063912895220283,0.11801981770144719,1.0278143966549858,0.012887001620491773
412,0.026653840423843316,-0.11271612230049116,-0.2210224190187658,-0.11312860544546774,-0.07799833911179525,0.026447396677733916,0.31801005834751367,0.07592164878322266,0.053956540827381445,0.11278412074162196,0.9258093307614604,0.014130388878964171
413,0.027622121772038436,-0.10591780692484794,-0.36027052759890454,-0.10562742108463598,-0.09454827082810961,0.026687234191822486,0.026095197923106366,0.0802395991194662,0.04837511597469597,0.10754497005593103,0.7024769595542908,0.01306452831279904
414,0.027711472224752506,-0.09933101797413448,-0.46879287127721503,-0.09411767497524735,-0.11036547210639647,0.026770804653236512,-0.29132661427270606,0.08023317928419278,0.044185011298626384,0.10230258105664972,0.3865659091046398,0.014215062562080714
415,0.025366879172903756,-0.09453240400876751,-0.5524960021865559,-0.08327194333761685,-0.12261641856245811,0.026716781611072316,-0.6195095715324163,0.07938590519590331,0.03706575920866937,0.09706653292837991,0.01557575668421555,0.019496065100021238
416,0.02040805162587601,-0.09296380070735763,-0.6221408760523877,-0.07847369452765282,-0.13122905563351628,0.02660760220925941,-0.9420789408785695,0.08203162065931993,0.026217947837575084,0.09184679681164738,-0.39150353738702337,0.0255368706534893
417,0.014468031931105036,-0.09366485890341937,-0.6796209575593806,-0.07933334209886375,-0.1365972420772657,0.026546017628459533,-1.2404495582246358,0.08805032705511306,0.015356260202929888,0.08662689516376211,-0.8407956163619492,0.02862431209127724
418,0.009079714703883836,-0.09343563273255641,-0.7185624026985472,-0.08007898504278388,-0.14087449705076632,0.026653718162067387,-1.4959390985701286,0.0931696347411394,0.007942356455253178,0.08136569189682673,-1.3287903974948005,0.02844237787200022
419,0.004134790669963395,-0.08977543164093729,-0.7341031475289022,-0.07618132866311528,-0.1473489439555182,0.02695517753809189,-1.6903001251694931,0.09412954828490704,0.003349445627152529,0.07604922940007043,-1.7697475037673676,0.02686665232343524
420,-0.0012008047028889757,-0.0838726679350993,-0.7299718806288185,-0.0699185592722335,-0.15774643487625625,0.027014479305519715,-1.8055672385043464,0.0931745722552794,-0.000890258835145821,0.07079573611576119,-2.0424221041286588,0.02563847604898567
421,-0.007053867552281173,-0.0779709232176686,-0.7124087994240962,-0.06551766398344412,-0.16882112517305628,0.026282826667550756,-1.8369825372391784,0.09411985000935255,-0.0061976424275606255,0.0657561893763085,-2.0986173525788647,0.025986847240320403
422,-0.012016467097233181,-0.07297460397062,-0.6871489983764539,-0.06481632908638066,-0.17652501086696806,0.025282577346555955,-1.8066684051050979,0.09860077238030528,-0.011570507031377453,0.06079031775627546,-2.0391253643214875,0.028976830481505043
423,-0.014584121033752217,-0.06788342070716699,-0.6592087703666185,-0.0662539486730257,-0.18087540771201616,0.02605944405836928,-1.7379604600678074,0.1051525167139017,-0.01580718042147092,0.05534364659719919,-1.974169202429544,0.03428456082147415
424,-0.014682479923815217,-0.06183055103223482,-0.6329218350285737,-0.06802410584722718,-0.18601021613837926,0.030325014883030847,-1.6295234843534763,0.11207296738166259,-0.01993857205850521,0.049053796627207616,-1.9097332578210642,0.040290877637665354
425,-0.013280665446031986,-0.05611111727852898,-0.6077544718746034,-0.06842513019220138,-0.1952329905156706,0.03629865125794424,-1.4637280998949813,0.11765442946867417,-0.02679528136292438,0.04329300824713913,-1.7829411633854115,0.04568231528540626
426,-0.01159697581800817,-0.05302215448798366,-0.5808918799540633,-0.06581203235304772,-0.20648911373142734,0.040576088595542924,-1.2371994204529022,0.12019458550525931,-0.03794706812519606,0.0402359502029678,-1.5572204667178464,0.05076305117365727
427,-0.011676338052887696,-0.05322320137257327,-0.5481290082210523,-0.060089937799423655,-0.21599797271680415,0.04135316000974134,-0.9920602553486494,0.1195897146857765,-0.0493056229554522,0.0404534213214807,-1.2821109344696033,0.05627674779074968
428,-0.015647288104005935,-0.05375394807879092,-0.5022265567116777,-0.05457812598540175,-0.2219726568209889,0.040370908767187005,-0.7779198272220759,0.11925769386073293,-0.05535257348911355,0.040972936526360054,-1.0224629626294488,0.062092783581625434
429,-0.022313388573343272,-0.05139788007618624,-0.43644836314443936,-0.05273087272107399,-0.2258048922278892,0.03972196028357796,-0.6135588027220981,0.12274520515209052,-0.05507577176785275,0.03857632648849521,-0.810160020183928,0.06690467648193489
430,-0.026566352907261573,-0.046025314748097255,-0.3564304737820526,-0.05363741637775973,-0.22886556890302753,0.03984773226472043,-0.48750423955954114,0.1289542381070256,-0.05384228114481901,0.033136493421714916,-0.6447334764069338,0.06945081976425982
431,-0.02414875517587287,-0.03973724604936004,-0.27674956145703655,-0.0532326850932537,-0.22975614944417627,0.03999641271702276,-0.38809679867575,0.13343040329032585,-0.056777243845487206,0.026760080392114347,-0.5230441940088394,0.06936337491279933
432,-0.017661492638497277,-0.034181786134259436,-0.2093370168076599,-0.04881827202548921,-0.22560536434459283,0.03970725067889958,-0.30900205932196695,0.13343280066280488,-0.06289559688156263,0.021107785140212516,-0.435517574158799,0.06665981067120574
433,-0.012379884444406446,-0.029242067423445914,-0.15613414727732236,-0.04274273137850324,-0.2155805900740125,0.039635058933588166,-0.24554298404662497,0.13250156865102822,-0.06815401782935544,0.01609945252055506,-0.3706632068062713,0.061769527737118135
434,-0.011233359832928665,-0.024420006146956517,-0.11682031977846238,-0.03839884392277891,-0.2041084841138044,0.04061801018655463,-0.19438204336383652,0.1353775972280552,-0.06983813241891358,0.011275441369308642,-0.3198224516788354,0.05592595807878663
435,-0.012647378322442195,-0.019386282374483626,-0.08915692989537685,-0.03743213927984413,-0.1961598218002129,0.04179952517169127,-0.15413208066994022,0.14190256539113244,-0.06868500306473453,0.006246576767486525,-0.2784618725402422,0.05035904499663196
436,-0.014563969175217076,-0.013997540843523296,-0.06879191750041871,-0.0395628117615672,-0.19176870894938036,0.04045553933667926,-0.12367923794064574,0.14651960145585266,-0.06591175567148773,0.0007013321349948794,-0.24307738025736655,0.04521418927659349
437,-0.01522048686197863,-0.00825425512598735,-0.051714728093022154,-0.04423324402902254,-0.18680577787835798,0.034743929761075314,-0.1028462531393611,0.14457156790914444,-0.06155474581461221,-0.0054389506148638245,-0.21568738382393818,0.03995636579890796
438,-0.013046570332580647,-0.0029236719344641754,-0.036486377702386164,-0.04986507250023822,-0.1780739076687413,0.028408371183928152,-0.09189097872987742,0.1381265706567123,-0.05460010120016493,-0.010945800214625002,-0.20089631058387755,0.0343559552659338
439,-0.007568478091576218,0.0009570497836608114,-0.022590510440907166,-0.05452166607703904,-0.16689886947631294,0.02711820485236985,-0.08970142138894843,0.1316038230806554,-0.044542643466418286,-0.014143161072043558,-0.19924005167038153,0.029103076046066507
440,-0.0018338061986301179,0.0024928374206692042,-0.01036328449693132,-0.05653539464460402,-0.15577144704381646,0.03240858048088003,-0.09215602529346267,0.12693576763952902,-0.033510414546538705,-0.014554493839909026,-0.20229913550631673,0.02495782711506902
441,0.0005512283140422696,0.0010289321647048183,-0.0015776931069369903,-0.0546932925727532,-0.14564036721453028,0.03883415235388572,-0.09488472909400773,0.12185362106796792,-0.02439884268540453,-0.01372839672548318,-0.20109042554303877,0.02080453159355925
442,-0.0002743150076650988,-0.0038039973672648925,0.0021282871507145324,-0.0480218448901319,-0.1354159094964635,0.04095820294337897,-0.09551747439761417,0.11395000893627395,-0.018479439925007463,-0.013264298876133082,-0.19491540200347174,0.013824556319459363
443,-0.00023913182522830763,-0.009858017845613933,0.0017405667667518372,-0.037425415514446475,-0.12418603786119264,0.039878893216856684,-0.09310327194716092,0.10337062112002147,-0.014482880708094153,-0.013377644884478568,-0.1889530160610956,0.0024592846770177803
444,0.003934659128010302,-0.013586151775004697,-0.00029334845599101976,-0.024855083759361962,-0.11333004219675599,0.040331885933982875,-0.08759165373566506,0.09168351291516973,-0.01091585898651358,-0.013513182550149293,-0.18705341672942588,-0.0090134002416975
445,0.010061787303618753,-0.013361689800579632,-0.0017794295551846078,-0.012437452418769866,-0.10522188667942431,0.045014495143264964,-0.08187970422459254,0.0803273441774394,-0.006259820499000605,-0.01337156951930025,-0.18814352025311118,-0.01483287857834246
446,0.014094991810670464,-0.01267117355086472,-0.001235111467639528,-0.002732919480187057,-0.10043377658621253,0.05113481710417485,-0.07935272772307582,0.07035824914395612,0.0010166539824693812,-0.013351600386893174,-0.19011866205806027,-0.014286880707813105
447,0.014398056287422575,-0.015580393653850395,0.0025702640975134644,0.00179722047080106,-0.09574333743734312,0.055132200079292454,-0.07998206698191596,0.06271442237039924,0.011391926110652173,-0.013907525401835432,-0.191116851965188,-0.013271099742504367
448,0.013438545614712298,-0.0216539980538467,0.00847451954399565,0.0016861929597059766,-0.08774308452122223,0.055689010261017066,-0.08014610182788806,0.057355952489153095,0.022347356380985693,-0.014462544838432793,-0.18953149813220013,-0.017043852102783048
449,0.013749456381819312,-0.026607443124575067,0.013269222718879455,2.8013600163830435e-05,-0.0768562737063589,0.05340575026062952,-0.07680301873309765,0.05340649228959811,0.030934030956261918,-0.013558147559024163,-0.18442806594681904,-0.023515126368150462
450,0.014506127922596694,-0.027348927500389524,0.014571549450991324,-0.0006177517558365863,-0.06619039473549972,0.04900364822218091,-0.0709084691852782,0.04978546824685689,0.03640944132499164,-0.010052404477528087,-0.17838563481416475,-0.027572147034834585
451,0.012944319742440502,-0.026390538093968643,0.013792896729044967,-0.0003171822959565577,-0.05835712938922694,0.043454725654704006,-0.06472572869755913,0.04465783514413195,0.04019582468087693,-0.004271601948189967,-0.1751023740343627,-0.0272448873558873
452,0.007771998407395266,-0.027668357961623823,0.013309737516770243,0.00017210297591033295,-0.054068096090655514,0.0377850204767206,-0.059439837607232315,0.03605579087955364,0.043813111398943116,0.0030896224024725034,-0.17546737952090052,-0.02656646281892034
453,0.0019367867384582384,-0.03251368425855943,0.013771414051869452,0.0003597124268466153,-0.05354804479577307,0.03252365005263367,-0.05454780268730492,0.024671206121485198,0.048817878393065374,0.012204507242017569,-0.17597432839187632,-0.0297657251349614
454,-0.0010239812644593622,-0.03886303258373078,0.013576322680690419,0.00010353406956830377,-0.05488878497180567,0.02755210439199619,-0.04946896787859095,0.01466225211025726,0.05675913415673089,0.024377381300739246,-0.1731785940255914,-0.035914821418445916
455,-0.0007792108333552405,-0.04468048294887895,0.011550732508933298,-0.0005911837321174077,-0.0538376655416078,0.022687501523209558,-0.04421713745610213,0.009876433031678665,0.06754468911517181,0.040423972271585916,-0.1674453198050445,-0.040939118337048816
456,-2.3946331893188663e-06,-0.04971236763191332,0.010559149741661947,-0.000854635172732762,-0.04688804308867114,0.017601363699889426,-0.03910741470312793,0.010371163358922107,0.07824173407372435,0.05722276440766845,-0.16107358054614837,-0.04218745858566932
457,-0.0007158616152584982,-0.05446342679383881,0.015159166065517989,0.0005479729208665322,-0.035547170564025385,0.0119079414736907,-0.03420337509549204,0.014587106220625043,0.08592171750071291,0.06999455796905052,-0.15558269464466606,-0.04115760573597197
458,-0.0011957009339447454,-0.0593647562335086,0.02626479792553004,0.004416026756533958,-0.023110089552600698,0.005870705589207509,-0.028968219477214462,0.020580302961014842,0.09078167890453363,0.07655944030330476,-0.15061211901053065,-0.04001397066584908
459,0.0013775299539090674,-0.06469382182568295,0.03745524358587344,0.010671194401613179,-0.011872568830285934,0.001058245779046354,-0.022881262571084023,0.025645852487688203,0.09493956805735541,0.07997341912773737,-0.14556067017559868,-0.03978868299693766
460,0.00721022668512673,-0.07062444537456791,0.04205949403226952,0.018894774086568544,-0.0023951431307038364,-0.0009737486856450555,-0.016936198694784906,0.02728235306869837,0.09992927395386314,0.08372205066902147,-0.14028361000237205,-0.04051317433070919
461,0.012554127618678159,-0.07630390163507249,0.040967466090003415,0.02583484693978504,0.004970974469754651,-0.0007063684013854659,-0.01327988694873168,0.026535779756698838,0.1053402393231046,0.08891522182116696,-0.13498377786487273,-0.04184050861025781
462,0.013919598782121307,-0.08020013140976862,0.040073535559273676,0.026364885467510243,0.010243000148126572,3.122451383346302e-05,-0.013076888164975481,0.026799985616234846,0.1104083122756226,0.09509010693555507,-0.12979548241750852,-0.041951394171257886
463,0.012915689129008756,-0.08135179425238795,0.04356427026391164,0.017820574792233076,0.013651782331083478,-1.4854411856687932e-05,-0.01378202951574907,0.030457368847354362,0.11521253109919928,0.10150071973345384,-0.12456962255752789,-0.03870352100527461
464,0.01376384211143824,-0.08065356684322052,0.04990345658592513,0.00548486584491999,0.015248817374995935,-0.00018995226094089624,-0.012084206789712428,0.03653599910893811,0.12074442879694489,0.1065887431808093,-0.1191054842867065,-0.03259452022608109
465,0.018656927849549153,-0.07936637571272662,0.056473638960716735,-0.003994756776093816,0.014575605173018983,0.0004722740587556796,-0.007115948943540682,0.043399757934735765,0.12757214777208653,0.10872334488501988,-0.11358854237198633,-0.02748525199947187
466,0.024662652554728312,-0.07869542945604412,0.06195583428856892,-0.008986868681213714,0.011148539077805506,0.0013582530559852657,-0.0007679982190384261,0.04945987279235027,0.13341502800692162,0.10835680388559454,-0.10864017619831247,-0.02661019255956225
467,0.028218760689109987,-0.07978961485651667,0.06634360490713341,-0.012930470244272387,0.005735588281623657,0.00025737538617992637,0.005159770258108781,0.05317543022313156,0.13494058347401244,0.10804708762106618,-0.10456520956945506,-0.027660901083076703
468,0.02844785483152716,-0.08349626870343488,0.069997211690479,-0.018620008900428996,0.0002495523284240797,-0.00438099961277407,0.010246547351294724,0.05360533547487907,0.13090768929679447,0.11017704321056573,-0.09970391819825566,-0.026123156931732998
469,0.02671771056630281,-0.08911877585991583,0.07486972997943507,-0.024361872683692103,-0.004008458695471106,-0.010334747587953896,0.014573601424637548,0.05289428296893396,0.12408860728087544,0.11574352160685332,-0.09172221661474382,-0.020453540367842204
470,0.024641472667081728,-0.09546475643053495,0.08337848080370247,-0.02706438083162977,-0.008792796626868422,-0.01420270510968491,0.018806890115569214,0.05414964323023069,0.11754545708228895,0.12526361656495175,-0.08053777014134307,-0.01462008138687072
471,0.024587467380917803,-0.10140348699911643,0.09507253351344545,-0.026372783530586932,-0.016696888927053597,-0.014659239547876625,0.0245941632048629,0.058681739468934464,0.11229158291619265,0.1372475442239211,-0.06985493591661669,-0.012694511689471093
472,0.028989332402900515,-0.10589982693007936,0.10507111264513691,-0.026160062538349328,-0.027722932024062598,-0.013584873970267322,0.03341382984221439,0.06502496667483267,0.1079481014041772,0.14710661006558454,-0.06319621858353948,-0.013610967554021483
